'Time','ECG1'
'[12:00:00.000]',-0.26
'[12:00:00.004]',-0.275
'[12:00:00.008]',-0.25
'[12:00:00.012]',-0.235
'[12:00:00.016]',-0.25
'[12:00:00.020]',-0.25
'[12:00:00.024]',-0.275
'[12:00:00.028]',-0.31
'[12:00:00.032]',-0.34
'[12:00:00.036]',-0.31
'[12:00:00.040]',-0.285
'[12:00:00.044]',-0.175
'[12:00:00.048]',0.005
'[12:00:00.052]',0.285
'[12:00:00.056]',0.57
'[12:00:00.060]',0.77
'[12:00:00.064]',0.785
'[12:00:00.068]',0.445
'[12:00:00.072]',-0.105
'[12:00:00.076]',-0.58
'[12:00:00.080]',-0.85
'[12:00:00.084]',-0.87
'[12:00:00.088]',-0.71
'[12:00:00.092]',-0.525
'[12:00:00.096]',-0.375
'[12:00:00.100]',-0.29
'[12:00:00.104]',-0.27
'[12:00:00.108]',-0.26
'[12:00:00.112]',-0.28
'[12:00:00.116]',-0.29
'[12:00:00.120]',-0.28
'[12:00:00.124]',-0.275
'[12:00:00.128]',-0.31
'[12:00:00.132]',-0.32
'[12:00:00.136]',-0.32
'[12:00:00.140]',-0.365
'[12:00:00.144]',-0.375
'[12:00:00.148]',-0.385
'[12:00:00.152]',-0.36
'[12:00:00.156]',-0.33
'[12:00:00.160]',-0.31
'[12:00:00.164]',-0.28
'[12:00:00.168]',-0.29
'[12:00:00.172]',-0.28
'[12:00:00.176]',-0.255
'[12:00:00.180]',-0.275
'[12:00:00.184]',-0.245
'[12:00:00.188]',-0.225
'[12:00:00.192]',-0.215
'[12:00:00.196]',-0.23
'[12:00:00.200]',-0.21
'[12:00:00.204]',-0.205
'[12:00:00.208]',-0.23
'[12:00:00.212]',-0.18
'[12:00:00.216]',-0.185
'[12:00:00.220]',-0.155
'[12:00:00.224]',-0.17
'[12:00:00.228]',-0.17
'[12:00:00.232]',-0.16
'[12:00:00.236]',-0.145
'[12:00:00.240]',-0.13
'[12:00:00.244]',-0.12
'[12:00:00.248]',-0.11
'[12:00:00.252]',-0.09
'[12:00:00.256]',-0.085
'[12:00:00.260]',-0.075
'[12:00:00.264]',-0.04
'[12:00:00.268]',-0.025
'[12:00:00.272]',-0.015
'[12:00:00.276]',-0.02
'[12:00:00.280]',-0.02
'[12:00:00.284]',-0.01
'[12:00:00.288]',-0.005
'[12:00:00.292]',-0.015
'[12:00:00.296]',0
'[12:00:00.300]',-0.01
'[12:00:00.304]',-0.025
'[12:00:00.308]',-0.045
'[12:00:00.312]',-0.09
'[12:00:00.316]',-0.105
'[12:00:00.320]',-0.09
'[12:00:00.324]',-0.085
'[12:00:00.328]',-0.085
'[12:00:00.332]',-0.105
'[12:00:00.336]',-0.095
'[12:00:00.340]',-0.12
'[12:00:00.344]',-0.145
'[12:00:00.348]',-0.145
'[12:00:00.352]',-0.17
'[12:00:00.356]',-0.16
'[12:00:00.360]',-0.17
'[12:00:00.364]',-0.185
'[12:00:00.368]',-0.215
'[12:00:00.372]',-0.22
'[12:00:00.376]',-0.23
'[12:00:00.380]',-0.24
'[12:00:00.384]',-0.245
'[12:00:00.388]',-0.235
'[12:00:00.392]',-0.245
'[12:00:00.396]',-0.235
'[12:00:00.400]',-0.25
'[12:00:00.404]',-0.23
'[12:00:00.408]',-0.25
'[12:00:00.412]',-0.24
'[12:00:00.416]',-0.24
'[12:00:00.420]',-0.255
'[12:00:00.424]',-0.275
'[12:00:00.428]',-0.26
'[12:00:00.432]',-0.25
'[12:00:00.436]',-0.265
'[12:00:00.440]',-0.3
'[12:00:00.444]',-0.3
'[12:00:00.448]',-0.32
'[12:00:00.452]',-0.32
'[12:00:00.456]',-0.33
'[12:00:00.460]',-0.35
'[12:00:00.464]',-0.36
'[12:00:00.468]',-0.36
'[12:00:00.472]',-0.37
'[12:00:00.476]',-0.37
'[12:00:00.480]',-0.37
'[12:00:00.484]',-0.35
'[12:00:00.488]',-0.34
'[12:00:00.492]',-0.34
'[12:00:00.496]',-0.32
'[12:00:00.500]',-0.31
'[12:00:00.504]',-0.295
'[12:00:00.508]',-0.29
'[12:00:00.512]',-0.29
'[12:00:00.516]',-0.305
'[12:00:00.520]',-0.265
'[12:00:00.524]',-0.285
'[12:00:00.528]',-0.27
'[12:00:00.532]',-0.285
'[12:00:00.536]',-0.27
'[12:00:00.540]',-0.27
'[12:00:00.544]',-0.27
'[12:00:00.548]',-0.275
'[12:00:00.552]',-0.255
'[12:00:00.556]',-0.255
'[12:00:00.560]',-0.27
'[12:00:00.564]',-0.24
'[12:00:00.568]',-0.25
'[12:00:00.572]',-0.25
'[12:00:00.576]',-0.265
'[12:00:00.580]',-0.29
'[12:00:00.584]',-0.28
'[12:00:00.588]',-0.275
'[12:00:00.592]',-0.285
'[12:00:00.596]',-0.285
'[12:00:00.600]',-0.28
'[12:00:00.604]',-0.3
'[12:00:00.608]',-0.325
'[12:00:00.612]',-0.345
'[12:00:00.616]',-0.35
'[12:00:00.620]',-0.37
'[12:00:00.624]',-0.36
'[12:00:00.628]',-0.355
'[12:00:00.632]',-0.345
'[12:00:00.636]',-0.365
'[12:00:00.640]',-0.365
'[12:00:00.644]',-0.345
'[12:00:00.648]',-0.325
'[12:00:00.652]',-0.335
'[12:00:00.656]',-0.335
'[12:00:00.660]',-0.335
'[12:00:00.664]',-0.36
'[12:00:00.668]',-0.39
'[12:00:00.672]',-0.395
'[12:00:00.676]',-0.38
'[12:00:00.680]',-0.31
'[12:00:00.684]',-0.19
'[12:00:00.688]',0.015
'[12:00:00.692]',0.275
'[12:00:00.696]',0.55
'[12:00:00.700]',0.725
'[12:00:00.704]',0.69
'[12:00:00.708]',0.37
'[12:00:00.712]',-0.115
'[12:00:00.716]',-0.57
'[12:00:00.720]',-0.885
'[12:00:00.724]',-0.92
'[12:00:00.728]',-0.78
'[12:00:00.732]',-0.57
'[12:00:00.736]',-0.39
'[12:00:00.740]',-0.325
'[12:00:00.744]',-0.285
'[12:00:00.748]',-0.28
'[12:00:00.752]',-0.27
'[12:00:00.756]',-0.275
'[12:00:00.760]',-0.25
'[12:00:00.764]',-0.265
'[12:00:00.768]',-0.295
'[12:00:00.772]',-0.295
'[12:00:00.776]',-0.315
'[12:00:00.780]',-0.29
'[12:00:00.784]',-0.29
'[12:00:00.788]',-0.29
'[12:00:00.792]',-0.3
'[12:00:00.796]',-0.31
'[12:00:00.800]',-0.3
'[12:00:00.804]',-0.31
'[12:00:00.808]',-0.305
'[12:00:00.812]',-0.32
'[12:00:00.816]',-0.3
'[12:00:00.820]',-0.28
'[12:00:00.824]',-0.29
'[12:00:00.828]',-0.255
'[12:00:00.832]',-0.26
'[12:00:00.836]',-0.26
'[12:00:00.840]',-0.255
'[12:00:00.844]',-0.275
'[12:00:00.848]',-0.255
'[12:00:00.852]',-0.24
'[12:00:00.856]',-0.205
'[12:00:00.860]',-0.195
'[12:00:00.864]',-0.17
'[12:00:00.868]',-0.155
'[12:00:00.872]',-0.155
'[12:00:00.876]',-0.155
'[12:00:00.880]',-0.125
'[12:00:00.884]',-0.11
'[12:00:00.888]',-0.07
'[12:00:00.892]',-0.05
'[12:00:00.896]',-0.035
'[12:00:00.900]',-0.04
'[12:00:00.904]',-0.03
'[12:00:00.908]',-0.015
'[12:00:00.912]',0
'[12:00:00.916]',0.01
'[12:00:00.920]',-0.005
'[12:00:00.924]',0.015
'[12:00:00.928]',0.015
'[12:00:00.932]',0.02
'[12:00:00.936]',0.025
'[12:00:00.940]',0.015
'[12:00:00.944]',0.015
'[12:00:00.948]',0.01
'[12:00:00.952]',0.025
'[12:00:00.956]',0.035
'[12:00:00.960]',0.04
'[12:00:00.964]',0.01
'[12:00:00.968]',-0.015
'[12:00:00.972]',-0.03
'[12:00:00.976]',-0.035
'[12:00:00.980]',-0.085
'[12:00:00.984]',-0.115
'[12:00:00.988]',-0.135
'[12:00:00.992]',-0.135
'[12:00:00.996]',-0.17
'[12:00:01.000]',-0.18
'[12:00:01.004]',-0.21
'[12:00:01.008]',-0.225
'[12:00:01.012]',-0.235
'[12:00:01.016]',-0.255
'[12:00:01.020]',-0.26
'[12:00:01.024]',-0.275
'[12:00:01.028]',-0.26
'[12:00:01.032]',-0.28
'[12:00:01.036]',-0.285
'[12:00:01.040]',-0.285
'[12:00:01.044]',-0.29
'[12:00:01.048]',-0.285
'[12:00:01.052]',-0.275
'[12:00:01.056]',-0.28
'[12:00:01.060]',-0.265
'[12:00:01.064]',-0.26
'[12:00:01.068]',-0.24
'[12:00:01.072]',-0.255
'[12:00:01.076]',-0.27
'[12:00:01.080]',-0.255
'[12:00:01.084]',-0.265
'[12:00:01.088]',-0.24
'[12:00:01.092]',-0.255
'[12:00:01.096]',-0.245
'[12:00:01.100]',-0.225
'[12:00:01.104]',-0.265
'[12:00:01.108]',-0.24
'[12:00:01.112]',-0.24
'[12:00:01.116]',-0.24
'[12:00:01.120]',-0.275
'[12:00:01.124]',-0.24
'[12:00:01.128]',-0.275
'[12:00:01.132]',-0.28
'[12:00:01.136]',-0.275
'[12:00:01.140]',-0.295
'[12:00:01.144]',-0.29
'[12:00:01.148]',-0.3
'[12:00:01.152]',-0.29
'[12:00:01.156]',-0.29
'[12:00:01.160]',-0.27
'[12:00:01.164]',-0.3
'[12:00:01.168]',-0.28
'[12:00:01.172]',-0.285
'[12:00:01.176]',-0.29
'[12:00:01.180]',-0.27
'[12:00:01.184]',-0.29
'[12:00:01.188]',-0.305
'[12:00:01.192]',-0.325
'[12:00:01.196]',-0.32
'[12:00:01.200]',-0.33
'[12:00:01.204]',-0.335
'[12:00:01.208]',-0.33
'[12:00:01.212]',-0.33
'[12:00:01.216]',-0.305
'[12:00:01.220]',-0.315
'[12:00:01.224]',-0.315
'[12:00:01.228]',-0.28
'[12:00:01.232]',-0.305
'[12:00:01.236]',-0.265
'[12:00:01.240]',-0.27
'[12:00:01.244]',-0.265
'[12:00:01.248]',-0.25
'[12:00:01.252]',-0.24
'[12:00:01.256]',-0.25
'[12:00:01.260]',-0.29
'[12:00:01.264]',-0.265
'[12:00:01.268]',-0.255
'[12:00:01.272]',-0.255
'[12:00:01.276]',-0.275
'[12:00:01.280]',-0.265
'[12:00:01.284]',-0.265
'[12:00:01.288]',-0.265
'[12:00:01.292]',-0.26
'[12:00:01.296]',-0.295
'[12:00:01.300]',-0.265
'[12:00:01.304]',-0.28
'[12:00:01.308]',-0.265
'[12:00:01.312]',-0.29
'[12:00:01.316]',-0.27
'[12:00:01.320]',-0.27
'[12:00:01.324]',-0.29
'[12:00:01.328]',-0.28
'[12:00:01.332]',-0.285
'[12:00:01.336]',-0.31
'[12:00:01.340]',-0.3
'[12:00:01.344]',-0.32
'[12:00:01.348]',-0.3
'[12:00:01.352]',-0.3
'[12:00:01.356]',-0.295
'[12:00:01.360]',-0.31
'[12:00:01.364]',-0.325
'[12:00:01.368]',-0.32
'[12:00:01.372]',-0.31
'[12:00:01.376]',-0.37
'[12:00:01.380]',-0.42
'[12:00:01.384]',-0.45
'[12:00:01.388]',-0.445
'[12:00:01.392]',-0.45
'[12:00:01.396]',-0.36
'[12:00:01.400]',-0.165
'[12:00:01.404]',0.1
'[12:00:01.408]',0.415
'[12:00:01.412]',0.675
'[12:00:01.416]',0.795
'[12:00:01.420]',0.56
'[12:00:01.424]',0.08
'[12:00:01.428]',-0.455
'[12:00:01.432]',-0.82
'[12:00:01.436]',-0.935
'[12:00:01.440]',-0.855
'[12:00:01.444]',-0.7
'[12:00:01.448]',-0.535
'[12:00:01.452]',-0.42
'[12:00:01.456]',-0.37
'[12:00:01.460]',-0.335
'[12:00:01.464]',-0.315
'[12:00:01.468]',-0.315
'[12:00:01.472]',-0.305
'[12:00:01.476]',-0.295
'[12:00:01.480]',-0.305
'[12:00:01.484]',-0.295
'[12:00:01.488]',-0.295
'[12:00:01.492]',-0.315
'[12:00:01.496]',-0.295
'[12:00:01.500]',-0.295
'[12:00:01.504]',-0.3
'[12:00:01.508]',-0.31
'[12:00:01.512]',-0.295
'[12:00:01.516]',-0.315
'[12:00:01.520]',-0.31
'[12:00:01.524]',-0.305
'[12:00:01.528]',-0.31
'[12:00:01.532]',-0.32
'[12:00:01.536]',-0.315
'[12:00:01.540]',-0.295
'[12:00:01.544]',-0.27
'[12:00:01.548]',-0.29
'[12:00:01.552]',-0.275
'[12:00:01.556]',-0.26
'[12:00:01.560]',-0.26
'[12:00:01.564]',-0.24
'[12:00:01.568]',-0.24
'[12:00:01.572]',-0.235
'[12:00:01.576]',-0.23
'[12:00:01.580]',-0.22
'[12:00:01.584]',-0.225
'[12:00:01.588]',-0.24
'[12:00:01.592]',-0.21
'[12:00:01.596]',-0.215
'[12:00:01.600]',-0.21
'[12:00:01.604]',-0.19
'[12:00:01.608]',-0.175
'[12:00:01.612]',-0.145
'[12:00:01.616]',-0.14
'[12:00:01.620]',-0.11
'[12:00:01.624]',-0.09
'[12:00:01.628]',-0.06
'[12:00:01.632]',-0.055
'[12:00:01.636]',-0.035
'[12:00:01.640]',-0.02
'[12:00:01.644]',0.01
'[12:00:01.648]',0.01
'[12:00:01.652]',0.015
'[12:00:01.656]',0.015
'[12:00:01.660]',0.035
'[12:00:01.664]',0.025
'[12:00:01.668]',0.02
'[12:00:01.672]',-0.015
'[12:00:01.676]',-0.025
'[12:00:01.680]',-0.045
'[12:00:01.684]',-0.06
'[12:00:01.688]',-0.07
'[12:00:01.692]',-0.08
'[12:00:01.696]',-0.07
'[12:00:01.700]',-0.05
'[12:00:01.704]',-0.08
'[12:00:01.708]',-0.095
'[12:00:01.712]',-0.105
'[12:00:01.716]',-0.135
'[12:00:01.720]',-0.16
'[12:00:01.724]',-0.185
'[12:00:01.728]',-0.2
'[12:00:01.732]',-0.22
'[12:00:01.736]',-0.25
'[12:00:01.740]',-0.24
'[12:00:01.744]',-0.25
'[12:00:01.748]',-0.26
'[12:00:01.752]',-0.255
'[12:00:01.756]',-0.275
'[12:00:01.760]',-0.275
'[12:00:01.764]',-0.29
'[12:00:01.768]',-0.295
'[12:00:01.772]',-0.275
'[12:00:01.776]',-0.295
'[12:00:01.780]',-0.275
'[12:00:01.784]',-0.295
'[12:00:01.788]',-0.295
'[12:00:01.792]',-0.28
'[12:00:01.796]',-0.28
'[12:00:01.800]',-0.275
'[12:00:01.804]',-0.26
'[12:00:01.808]',-0.27
'[12:00:01.812]',-0.275
'[12:00:01.816]',-0.265
'[12:00:01.820]',-0.26
'[12:00:01.824]',-0.265
'[12:00:01.828]',-0.255
'[12:00:01.832]',-0.245
'[12:00:01.836]',-0.245
'[12:00:01.840]',-0.225
'[12:00:01.844]',-0.255
'[12:00:01.848]',-0.275
'[12:00:01.852]',-0.315
'[12:00:01.856]',-0.32
'[12:00:01.860]',-0.345
'[12:00:01.864]',-0.32
'[12:00:01.868]',-0.315
'[12:00:01.872]',-0.265
'[12:00:01.876]',-0.255
'[12:00:01.880]',-0.25
'[12:00:01.884]',-0.25
'[12:00:01.888]',-0.255
'[12:00:01.892]',-0.25
'[12:00:01.896]',-0.25
'[12:00:01.900]',-0.275
'[12:00:01.904]',-0.295
'[12:00:01.908]',-0.3
'[12:00:01.912]',-0.29
'[12:00:01.916]',-0.3
'[12:00:01.920]',-0.28
'[12:00:01.924]',-0.305
'[12:00:01.928]',-0.295
'[12:00:01.932]',-0.31
'[12:00:01.936]',-0.31
'[12:00:01.940]',-0.3
'[12:00:01.944]',-0.315
'[12:00:01.948]',-0.32
'[12:00:01.952]',-0.33
'[12:00:01.956]',-0.325
'[12:00:01.960]',-0.32
'[12:00:01.964]',-0.335
'[12:00:01.968]',-0.305
'[12:00:01.972]',-0.29
'[12:00:01.976]',-0.305
'[12:00:01.980]',-0.295
'[12:00:01.984]',-0.265
'[12:00:01.988]',-0.27
'[12:00:01.992]',-0.265
'[12:00:01.996]',-0.255
'[12:00:02.000]',-0.255
'[12:00:02.004]',-0.265
'[12:00:02.008]',-0.31
'[12:00:02.012]',-0.345
'[12:00:02.016]',-0.375
'[12:00:02.020]',-0.335
'[12:00:02.024]',-0.255
'[12:00:02.028]',-0.04
'[12:00:02.032]',0.27
'[12:00:02.036]',0.6
'[12:00:02.040]',0.82
'[12:00:02.044]',0.81
'[12:00:02.048]',0.485
'[12:00:02.052]',-0.05
'[12:00:02.056]',-0.555
'[12:00:02.060]',-0.84
'[12:00:02.064]',-0.9
'[12:00:02.068]',-0.805
'[12:00:02.072]',-0.605
'[12:00:02.076]',-0.46
'[12:00:02.080]',-0.36
'[12:00:02.084]',-0.32
'[12:00:02.088]',-0.31
'[12:00:02.092]',-0.305
'[12:00:02.096]',-0.305
'[12:00:02.100]',-0.325
'[12:00:02.104]',-0.3
'[12:00:02.108]',-0.33
'[12:00:02.112]',-0.33
'[12:00:02.116]',-0.32
'[12:00:02.120]',-0.32
'[12:00:02.124]',-0.31
'[12:00:02.128]',-0.315
'[12:00:02.132]',-0.32
'[12:00:02.136]',-0.305
'[12:00:02.140]',-0.295
'[12:00:02.144]',-0.285
'[12:00:02.148]',-0.29
'[12:00:02.152]',-0.275
'[12:00:02.156]',-0.265
'[12:00:02.160]',-0.25
'[12:00:02.164]',-0.25
'[12:00:02.168]',-0.24
'[12:00:02.172]',-0.21
'[12:00:02.176]',-0.215
'[12:00:02.180]',-0.215
'[12:00:02.184]',-0.225
'[12:00:02.188]',-0.225
'[12:00:02.192]',-0.24
'[12:00:02.196]',-0.215
'[12:00:02.200]',-0.195
'[12:00:02.204]',-0.16
'[12:00:02.208]',-0.135
'[12:00:02.212]',-0.13
'[12:00:02.216]',-0.12
'[12:00:02.220]',-0.135
'[12:00:02.224]',-0.13
'[12:00:02.228]',-0.095
'[12:00:02.232]',-0.11
'[12:00:02.236]',-0.1
'[12:00:02.240]',-0.06
'[12:00:02.244]',-0.05
'[12:00:02.248]',-0.055
'[12:00:02.252]',-0.075
'[12:00:02.256]',-0.045
'[12:00:02.260]',-0.045
'[12:00:02.264]',-0.02
'[12:00:02.268]',-0.025
'[12:00:02.272]',-0.02
'[12:00:02.276]',-0.025
'[12:00:02.280]',-0.04
'[12:00:02.284]',-0.05
'[12:00:02.288]',-0.04
'[12:00:02.292]',-0.06
'[12:00:02.296]',-0.075
'[12:00:02.300]',-0.095
'[12:00:02.304]',-0.12
'[12:00:02.308]',-0.145
'[12:00:02.312]',-0.165
'[12:00:02.316]',-0.19
'[12:00:02.320]',-0.195
'[12:00:02.324]',-0.22
'[12:00:02.328]',-0.2
'[12:00:02.332]',-0.22
'[12:00:02.336]',-0.235
'[12:00:02.340]',-0.235
'[12:00:02.344]',-0.22
'[12:00:02.348]',-0.22
'[12:00:02.352]',-0.2
'[12:00:02.356]',-0.225
'[12:00:02.360]',-0.235
'[12:00:02.364]',-0.255
'[12:00:02.368]',-0.255
'[12:00:02.372]',-0.27
'[12:00:02.376]',-0.285
'[12:00:02.380]',-0.265
'[12:00:02.384]',-0.285
'[12:00:02.388]',-0.32
'[12:00:02.392]',-0.315
'[12:00:02.396]',-0.335
'[12:00:02.400]',-0.345
'[12:00:02.404]',-0.335
'[12:00:02.408]',-0.34
'[12:00:02.412]',-0.335
'[12:00:02.416]',-0.36
'[12:00:02.420]',-0.34
'[12:00:02.424]',-0.355
'[12:00:02.428]',-0.35
'[12:00:02.432]',-0.36
'[12:00:02.436]',-0.375
'[12:00:02.440]',-0.375
'[12:00:02.444]',-0.375
'[12:00:02.448]',-0.37
'[12:00:02.452]',-0.37
'[12:00:02.456]',-0.36
'[12:00:02.460]',-0.395
'[12:00:02.464]',-0.385
'[12:00:02.468]',-0.385
'[12:00:02.472]',-0.405
'[12:00:02.476]',-0.395
'[12:00:02.480]',-0.4
'[12:00:02.484]',-0.38
'[12:00:02.488]',-0.37
'[12:00:02.492]',-0.33
'[12:00:02.496]',-0.31
'[12:00:02.500]',-0.285
'[12:00:02.504]',-0.305
'[12:00:02.508]',-0.305
'[12:00:02.512]',-0.31
'[12:00:02.516]',-0.295
'[12:00:02.520]',-0.28
'[12:00:02.524]',-0.295
'[12:00:02.528]',-0.31
'[12:00:02.532]',-0.29
'[12:00:02.536]',-0.32
'[12:00:02.540]',-0.315
'[12:00:02.544]',-0.32
'[12:00:02.548]',-0.31
'[12:00:02.552]',-0.31
'[12:00:02.556]',-0.32
'[12:00:02.560]',-0.335
'[12:00:02.564]',-0.34
'[12:00:02.568]',-0.345
'[12:00:02.572]',-0.34
'[12:00:02.576]',-0.35
'[12:00:02.580]',-0.33
'[12:00:02.584]',-0.35
'[12:00:02.588]',-0.36
'[12:00:02.592]',-0.365
'[12:00:02.596]',-0.365
'[12:00:02.600]',-0.36
'[12:00:02.604]',-0.355
'[12:00:02.608]',-0.345
'[12:00:02.612]',-0.36
'[12:00:02.616]',-0.36
'[12:00:02.620]',-0.36
'[12:00:02.624]',-0.365
'[12:00:02.628]',-0.37
'[12:00:02.632]',-0.375
'[12:00:02.636]',-0.375
'[12:00:02.640]',-0.4
'[12:00:02.644]',-0.36
'[12:00:02.648]',-0.34
'[12:00:02.652]',-0.335
'[12:00:02.656]',-0.33
'[12:00:02.660]',-0.335
'[12:00:02.664]',-0.32
'[12:00:02.668]',-0.335
'[12:00:02.672]',-0.335
'[12:00:02.676]',-0.31
'[12:00:02.680]',-0.335
'[12:00:02.684]',-0.33
'[12:00:02.688]',-0.305
'[12:00:02.692]',-0.31
'[12:00:02.696]',-0.325
'[12:00:02.700]',-0.325
'[12:00:02.704]',-0.32
'[12:00:02.708]',-0.36
'[12:00:02.712]',-0.345
'[12:00:02.716]',-0.36
'[12:00:02.720]',-0.38
'[12:00:02.724]',-0.445
'[12:00:02.728]',-0.49
'[12:00:02.732]',-0.54
'[12:00:02.736]',-0.55
'[12:00:02.740]',-0.505
'[12:00:02.744]',-0.365
'[12:00:02.748]',-0.1
'[12:00:02.752]',0.22
'[12:00:02.756]',0.57
'[12:00:02.760]',0.785
'[12:00:02.764]',0.685
'[12:00:02.768]',0.22
'[12:00:02.772]',-0.4
'[12:00:02.776]',-0.91
'[12:00:02.780]',-1.02
'[12:00:02.784]',-0.885
'[12:00:02.788]',-0.655
'[12:00:02.792]',-0.485
'[12:00:02.796]',-0.395
'[12:00:02.800]',-0.365
'[12:00:02.804]',-0.35
'[12:00:02.808]',-0.33
'[12:00:02.812]',-0.34
'[12:00:02.816]',-0.345
'[12:00:02.820]',-0.365
'[12:00:02.824]',-0.35
'[12:00:02.828]',-0.335
'[12:00:02.832]',-0.33
'[12:00:02.836]',-0.345
'[12:00:02.840]',-0.33
'[12:00:02.844]',-0.33
'[12:00:02.848]',-0.32
'[12:00:02.852]',-0.33
'[12:00:02.856]',-0.32
'[12:00:02.860]',-0.32
'[12:00:02.864]',-0.32
'[12:00:02.868]',-0.325
'[12:00:02.872]',-0.315
'[12:00:02.876]',-0.315
'[12:00:02.880]',-0.285
'[12:00:02.884]',-0.3
'[12:00:02.888]',-0.32
'[12:00:02.892]',-0.33
'[12:00:02.896]',-0.325
'[12:00:02.900]',-0.325
'[12:00:02.904]',-0.3
'[12:00:02.908]',-0.3
'[12:00:02.912]',-0.285
'[12:00:02.916]',-0.27
'[12:00:02.920]',-0.29
'[12:00:02.924]',-0.27
'[12:00:02.928]',-0.25
'[12:00:02.932]',-0.22
'[12:00:02.936]',-0.18
'[12:00:02.940]',-0.17
'[12:00:02.944]',-0.145
'[12:00:02.948]',-0.12
'[12:00:02.952]',-0.125
'[12:00:02.956]',-0.085
'[12:00:02.960]',-0.04
'[12:00:02.964]',-0.035
'[12:00:02.968]',-0.005
'[12:00:02.972]',0
'[12:00:02.976]',0
'[12:00:02.980]',0.03
'[12:00:02.984]',0.035
'[12:00:02.988]',0.035
'[12:00:02.992]',0.04
'[12:00:02.996]',0.04
'[12:00:03.000]',0.025
'[12:00:03.004]',0.025
'[12:00:03.008]',0.025
'[12:00:03.012]',0
'[12:00:03.016]',0
'[12:00:03.020]',-0.03
'[12:00:03.024]',-0.05
'[12:00:03.028]',-0.08
'[12:00:03.032]',-0.11
'[12:00:03.036]',-0.12
'[12:00:03.040]',-0.16
'[12:00:03.044]',-0.17
'[12:00:03.048]',-0.18
'[12:00:03.052]',-0.205
'[12:00:03.056]',-0.235
'[12:00:03.060]',-0.23
'[12:00:03.064]',-0.255
'[12:00:03.068]',-0.275
'[12:00:03.072]',-0.32
'[12:00:03.076]',-0.34
'[12:00:03.080]',-0.36
'[12:00:03.084]',-0.36
'[12:00:03.088]',-0.36
'[12:00:03.092]',-0.32
'[12:00:03.096]',-0.32
'[12:00:03.100]',-0.32
'[12:00:03.104]',-0.33
'[12:00:03.108]',-0.31
'[12:00:03.112]',-0.31
'[12:00:03.116]',-0.305
'[12:00:03.120]',-0.315
'[12:00:03.124]',-0.325
'[12:00:03.128]',-0.34
'[12:00:03.132]',-0.32
'[12:00:03.136]',-0.33
'[12:00:03.140]',-0.34
'[12:00:03.144]',-0.345
'[12:00:03.148]',-0.345
'[12:00:03.152]',-0.355
'[12:00:03.156]',-0.345
'[12:00:03.160]',-0.34
'[12:00:03.164]',-0.34
'[12:00:03.168]',-0.33
'[12:00:03.172]',-0.33
'[12:00:03.176]',-0.335
'[12:00:03.180]',-0.36
'[12:00:03.184]',-0.335
'[12:00:03.188]',-0.32
'[12:00:03.192]',-0.335
'[12:00:03.196]',-0.35
'[12:00:03.200]',-0.34
'[12:00:03.204]',-0.315
'[12:00:03.208]',-0.3
'[12:00:03.212]',-0.33
'[12:00:03.216]',-0.315
'[12:00:03.220]',-0.31
'[12:00:03.224]',-0.34
'[12:00:03.228]',-0.35
'[12:00:03.232]',-0.36
'[12:00:03.236]',-0.375
'[12:00:03.240]',-0.405
'[12:00:03.244]',-0.375
'[12:00:03.248]',-0.325
'[12:00:03.252]',-0.32
'[12:00:03.256]',-0.31
'[12:00:03.260]',-0.31
'[12:00:03.264]',-0.32
'[12:00:03.268]',-0.315
'[12:00:03.272]',-0.325
'[12:00:03.276]',-0.32
'[12:00:03.280]',-0.33
'[12:00:03.284]',-0.305
'[12:00:03.288]',-0.32
'[12:00:03.292]',-0.345
'[12:00:03.296]',-0.33
'[12:00:03.300]',-0.33
'[12:00:03.304]',-0.345
'[12:00:03.308]',-0.355
'[12:00:03.312]',-0.35
'[12:00:03.316]',-0.35
'[12:00:03.320]',-0.355
'[12:00:03.324]',-0.365
'[12:00:03.328]',-0.355
'[12:00:03.332]',-0.385
'[12:00:03.336]',-0.395
'[12:00:03.340]',-0.375
'[12:00:03.344]',-0.405
'[12:00:03.348]',-0.425
'[12:00:03.352]',-0.465
'[12:00:03.356]',-0.475
'[12:00:03.360]',-0.44
'[12:00:03.364]',-0.385
'[12:00:03.368]',-0.22
'[12:00:03.372]',0.06
'[12:00:03.376]',0.37
'[12:00:03.380]',0.66
'[12:00:03.384]',0.745
'[12:00:03.388]',0.53
'[12:00:03.392]',-0.005
'[12:00:03.396]',-0.565
'[12:00:03.400]',-0.93
'[12:00:03.404]',-1
'[12:00:03.408]',-0.865
'[12:00:03.412]',-0.65
'[12:00:03.416]',-0.505
'[12:00:03.420]',-0.435
'[12:00:03.424]',-0.395
'[12:00:03.428]',-0.38
'[12:00:03.432]',-0.385
'[12:00:03.436]',-0.385
'[12:00:03.440]',-0.38
'[12:00:03.444]',-0.38
'[12:00:03.448]',-0.38
'[12:00:03.452]',-0.37
'[12:00:03.456]',-0.375
'[12:00:03.460]',-0.375
'[12:00:03.464]',-0.37
'[12:00:03.468]',-0.385
'[12:00:03.472]',-0.355
'[12:00:03.476]',-0.375
'[12:00:03.480]',-0.38
'[12:00:03.484]',-0.385
'[12:00:03.488]',-0.39
'[12:00:03.492]',-0.375
'[12:00:03.496]',-0.38
'[12:00:03.500]',-0.375
'[12:00:03.504]',-0.38
'[12:00:03.508]',-0.36
'[12:00:03.512]',-0.375
'[12:00:03.516]',-0.345
'[12:00:03.520]',-0.34
'[12:00:03.524]',-0.315
'[12:00:03.528]',-0.295
'[12:00:03.532]',-0.27
'[12:00:03.536]',-0.255
'[12:00:03.540]',-0.25
'[12:00:03.544]',-0.245
'[12:00:03.548]',-0.22
'[12:00:03.552]',-0.18
'[12:00:03.556]',-0.165
'[12:00:03.560]',-0.15
'[12:00:03.564]',-0.145
'[12:00:03.568]',-0.125
'[12:00:03.572]',-0.105
'[12:00:03.576]',-0.075
'[12:00:03.580]',-0.04
'[12:00:03.584]',-0.04
'[12:00:03.588]',-0.025
'[12:00:03.592]',-0.03
'[12:00:03.596]',-0.02
'[12:00:03.600]',-0.04
'[12:00:03.604]',-0.01
'[12:00:03.608]',0
'[12:00:03.612]',-0.015
'[12:00:03.616]',-0.03
'[12:00:03.620]',-0.035
'[12:00:03.624]',-0.04
'[12:00:03.628]',-0.055
'[12:00:03.632]',-0.105
'[12:00:03.636]',-0.095
'[12:00:03.640]',-0.14
'[12:00:03.644]',-0.16
'[12:00:03.648]',-0.18
'[12:00:03.652]',-0.2
'[12:00:03.656]',-0.245
'[12:00:03.660]',-0.24
'[12:00:03.664]',-0.245
'[12:00:03.668]',-0.285
'[12:00:03.672]',-0.285
'[12:00:03.676]',-0.3
'[12:00:03.680]',-0.32
'[12:00:03.684]',-0.32
'[12:00:03.688]',-0.355
'[12:00:03.692]',-0.35
'[12:00:03.696]',-0.345
'[12:00:03.700]',-0.33
'[12:00:03.704]',-0.345
'[12:00:03.708]',-0.345
'[12:00:03.712]',-0.335
'[12:00:03.716]',-0.335
'[12:00:03.720]',-0.33
'[12:00:03.724]',-0.32
'[12:00:03.728]',-0.335
'[12:00:03.732]',-0.345
'[12:00:03.736]',-0.34
'[12:00:03.740]',-0.345
'[12:00:03.744]',-0.34
'[12:00:03.748]',-0.37
'[12:00:03.752]',-0.37
'[12:00:03.756]',-0.38
'[12:00:03.760]',-0.39
'[12:00:03.764]',-0.37
'[12:00:03.768]',-0.39
'[12:00:03.772]',-0.395
'[12:00:03.776]',-0.39
'[12:00:03.780]',-0.38
'[12:00:03.784]',-0.39
'[12:00:03.788]',-0.35
'[12:00:03.792]',-0.355
'[12:00:03.796]',-0.38
'[12:00:03.800]',-0.375
'[12:00:03.804]',-0.365
'[12:00:03.808]',-0.365
'[12:00:03.812]',-0.36
'[12:00:03.816]',-0.41
'[12:00:03.820]',-0.4
'[12:00:03.824]',-0.36
'[12:00:03.828]',-0.365
'[12:00:03.832]',-0.375
'[12:00:03.836]',-0.39
'[12:00:03.840]',-0.39
'[12:00:03.844]',-0.39
'[12:00:03.848]',-0.365
'[12:00:03.852]',-0.32
'[12:00:03.856]',-0.32
'[12:00:03.860]',-0.32
'[12:00:03.864]',-0.32
'[12:00:03.868]',-0.325
'[12:00:03.872]',-0.315
'[12:00:03.876]',-0.29
'[12:00:03.880]',-0.3
'[12:00:03.884]',-0.305
'[12:00:03.888]',-0.31
'[12:00:03.892]',-0.32
'[12:00:03.896]',-0.345
'[12:00:03.900]',-0.38
'[12:00:03.904]',-0.455
'[12:00:03.908]',-0.475
'[12:00:03.912]',-0.455
'[12:00:03.916]',-0.39
'[12:00:03.920]',-0.2
'[12:00:03.924]',0.09
'[12:00:03.928]',0.375
'[12:00:03.932]',0.65
'[12:00:03.936]',0.735
'[12:00:03.940]',0.46
'[12:00:03.944]',-0.075
'[12:00:03.948]',-0.635
'[12:00:03.952]',-1
'[12:00:03.956]',-0.995
'[12:00:03.960]',-0.84
'[12:00:03.964]',-0.64
'[12:00:03.968]',-0.51
'[12:00:03.972]',-0.435
'[12:00:03.976]',-0.4
'[12:00:03.980]',-0.375
'[12:00:03.984]',-0.385
'[12:00:03.988]',-0.4
'[12:00:03.992]',-0.44
'[12:00:03.996]',-0.405
'[12:00:04.000]',-0.39
'[12:00:04.004]',-0.38
'[12:00:04.008]',-0.34
'[12:00:04.012]',-0.32
'[12:00:04.016]',-0.335
'[12:00:04.020]',-0.335
'[12:00:04.024]',-0.325
'[12:00:04.028]',-0.32
'[12:00:04.032]',-0.295
'[12:00:04.036]',-0.29
'[12:00:04.040]',-0.31
'[12:00:04.044]',-0.305
'[12:00:04.048]',-0.28
'[12:00:04.052]',-0.285
'[12:00:04.056]',-0.275
'[12:00:04.060]',-0.29
'[12:00:04.064]',-0.29
'[12:00:04.068]',-0.28
'[12:00:04.072]',-0.28
'[12:00:04.076]',-0.275
'[12:00:04.080]',-0.28
'[12:00:04.084]',-0.28
'[12:00:04.088]',-0.28
'[12:00:04.092]',-0.245
'[12:00:04.096]',-0.205
'[12:00:04.100]',-0.21
'[12:00:04.104]',-0.215
'[12:00:04.108]',-0.185
'[12:00:04.112]',-0.195
'[12:00:04.116]',-0.18
'[12:00:04.120]',-0.16
'[12:00:04.124]',-0.145
'[12:00:04.128]',-0.125
'[12:00:04.132]',-0.095
'[12:00:04.136]',-0.08
'[12:00:04.140]',-0.085
'[12:00:04.144]',-0.08
'[12:00:04.148]',-0.095
'[12:00:04.152]',-0.08
'[12:00:04.156]',-0.065
'[12:00:04.160]',-0.045
'[12:00:04.164]',-0.015
'[12:00:04.168]',-0.01
'[12:00:04.172]',-0.01
'[12:00:04.176]',0
'[12:00:04.180]',0.005
'[12:00:04.184]',0
'[12:00:04.188]',0
'[12:00:04.192]',-0.01
'[12:00:04.196]',-0.045
'[12:00:04.200]',-0.09
'[12:00:04.204]',-0.13
'[12:00:04.208]',-0.145
'[12:00:04.212]',-0.175
'[12:00:04.216]',-0.19
'[12:00:04.220]',-0.21
'[12:00:04.224]',-0.24
'[12:00:04.228]',-0.26
'[12:00:04.232]',-0.265
'[12:00:04.236]',-0.305
'[12:00:04.240]',-0.3
'[12:00:04.244]',-0.305
'[12:00:04.248]',-0.33
'[12:00:04.252]',-0.325
'[12:00:04.256]',-0.325
'[12:00:04.260]',-0.34
'[12:00:04.264]',-0.345
'[12:00:04.268]',-0.34
'[12:00:04.272]',-0.33
'[12:00:04.276]',-0.34
'[12:00:04.280]',-0.365
'[12:00:04.284]',-0.38
'[12:00:04.288]',-0.4
'[12:00:04.292]',-0.4
'[12:00:04.296]',-0.395
'[12:00:04.300]',-0.395
'[12:00:04.304]',-0.36
'[12:00:04.308]',-0.33
'[12:00:04.312]',-0.33
'[12:00:04.316]',-0.325
'[12:00:04.320]',-0.34
'[12:00:04.324]',-0.325
'[12:00:04.328]',-0.345
'[12:00:04.332]',-0.35
'[12:00:04.336]',-0.33
'[12:00:04.340]',-0.305
'[12:00:04.344]',-0.33
'[12:00:04.348]',-0.305
'[12:00:04.352]',-0.31
'[12:00:04.356]',-0.33
'[12:00:04.360]',-0.32
'[12:00:04.364]',-0.34
'[12:00:04.368]',-0.33
'[12:00:04.372]',-0.335
'[12:00:04.376]',-0.35
'[12:00:04.380]',-0.35
'[12:00:04.384]',-0.37
'[12:00:04.388]',-0.36
'[12:00:04.392]',-0.37
'[12:00:04.396]',-0.37
'[12:00:04.400]',-0.36
'[12:00:04.404]',-0.34
'[12:00:04.408]',-0.355
'[12:00:04.412]',-0.365
'[12:00:04.416]',-0.365
'[12:00:04.420]',-0.35
'[12:00:04.424]',-0.34
'[12:00:04.428]',-0.34
'[12:00:04.432]',-0.375
'[12:00:04.436]',-0.37
'[12:00:04.440]',-0.37
'[12:00:04.444]',-0.385
'[12:00:04.448]',-0.385
'[12:00:04.452]',-0.4
'[12:00:04.456]',-0.41
'[12:00:04.460]',-0.44
'[12:00:04.464]',-0.43
'[12:00:04.468]',-0.43
'[12:00:04.472]',-0.42
'[12:00:04.476]',-0.39
'[12:00:04.480]',-0.375
'[12:00:04.484]',-0.35
'[12:00:04.488]',-0.305
'[12:00:04.492]',-0.31
'[12:00:04.496]',-0.325
'[12:00:04.500]',-0.34
'[12:00:04.504]',-0.325
'[12:00:04.508]',-0.335
'[12:00:04.512]',-0.32
'[12:00:04.516]',-0.33
'[12:00:04.520]',-0.32
'[12:00:04.524]',-0.33
'[12:00:04.528]',-0.32
'[12:00:04.532]',-0.325
'[12:00:04.536]',-0.345
'[12:00:04.540]',-0.34
'[12:00:04.544]',-0.345
'[12:00:04.548]',-0.335
'[12:00:04.552]',-0.345
'[12:00:04.556]',-0.355
'[12:00:04.560]',-0.345
'[12:00:04.564]',-0.375
'[12:00:04.568]',-0.345
'[12:00:04.572]',-0.37
'[12:00:04.576]',-0.37
'[12:00:04.580]',-0.34
'[12:00:04.584]',-0.36
'[12:00:04.588]',-0.38
'[12:00:04.592]',-0.36
'[12:00:04.596]',-0.365
'[12:00:04.600]',-0.375
'[12:00:04.604]',-0.37
'[12:00:04.608]',-0.365
'[12:00:04.612]',-0.38
'[12:00:04.616]',-0.395
'[12:00:04.620]',-0.39
'[12:00:04.624]',-0.37
'[12:00:04.628]',-0.375
'[12:00:04.632]',-0.375
'[12:00:04.636]',-0.405
'[12:00:04.640]',-0.37
'[12:00:04.644]',-0.365
'[12:00:04.648]',-0.36
'[12:00:04.652]',-0.395
'[12:00:04.656]',-0.435
'[12:00:04.660]',-0.465
'[12:00:04.664]',-0.455
'[12:00:04.668]',-0.47
'[12:00:04.672]',-0.445
'[12:00:04.676]',-0.35
'[12:00:04.680]',-0.17
'[12:00:04.684]',0.11
'[12:00:04.688]',0.41
'[12:00:04.692]',0.685
'[12:00:04.696]',0.805
'[12:00:04.700]',0.655
'[12:00:04.704]',0.195
'[12:00:04.708]',-0.345
'[12:00:04.712]',-0.765
'[12:00:04.716]',-0.93
'[12:00:04.720]',-0.905
'[12:00:04.724]',-0.75
'[12:00:04.728]',-0.59
'[12:00:04.732]',-0.445
'[12:00:04.736]',-0.39
'[12:00:04.740]',-0.355
'[12:00:04.744]',-0.36
'[12:00:04.748]',-0.36
'[12:00:04.752]',-0.365
'[12:00:04.756]',-0.37
'[12:00:04.760]',-0.36
'[12:00:04.764]',-0.375
'[12:00:04.768]',-0.365
'[12:00:04.772]',-0.365
'[12:00:04.776]',-0.365
'[12:00:04.780]',-0.35
'[12:00:04.784]',-0.35
'[12:00:04.788]',-0.35
'[12:00:04.792]',-0.36
'[12:00:04.796]',-0.37
'[12:00:04.800]',-0.365
'[12:00:04.804]',-0.36
'[12:00:04.808]',-0.35
'[12:00:04.812]',-0.34
'[12:00:04.816]',-0.33
'[12:00:04.820]',-0.3
'[12:00:04.824]',-0.275
'[12:00:04.828]',-0.245
'[12:00:04.832]',-0.25
'[12:00:04.836]',-0.235
'[12:00:04.840]',-0.235
'[12:00:04.844]',-0.235
'[12:00:04.848]',-0.205
'[12:00:04.852]',-0.19
'[12:00:04.856]',-0.2
'[12:00:04.860]',-0.22
'[12:00:04.864]',-0.19
'[12:00:04.868]',-0.175
'[12:00:04.872]',-0.16
'[12:00:04.876]',-0.16
'[12:00:04.880]',-0.16
'[12:00:04.884]',-0.12
'[12:00:04.888]',-0.12
'[12:00:04.892]',-0.095
'[12:00:04.896]',-0.08
'[12:00:04.900]',-0.08
'[12:00:04.904]',-0.055
'[12:00:04.908]',-0.06
'[12:00:04.912]',-0.035
'[12:00:04.916]',-0.015
'[12:00:04.920]',-0.01
'[12:00:04.924]',-0.01
'[12:00:04.928]',0.005
'[12:00:04.932]',0.02
'[12:00:04.936]',0
'[12:00:04.940]',0.02
'[12:00:04.944]',0
'[12:00:04.948]',-0.005
'[12:00:04.952]',-0.01
'[12:00:04.956]',0.005
'[12:00:04.960]',-0.01
'[12:00:04.964]',-0.015
'[12:00:04.968]',-0.025
'[12:00:04.972]',-0.06
'[12:00:04.976]',-0.065
'[12:00:04.980]',-0.095
'[12:00:04.984]',-0.11
'[12:00:04.988]',-0.13
'[12:00:04.992]',-0.15
'[12:00:04.996]',-0.165
'[12:00:05.000]',-0.17
'[12:00:05.004]',-0.185
'[12:00:05.008]',-0.215
'[12:00:05.012]',-0.235
'[12:00:05.016]',-0.225
'[12:00:05.020]',-0.255
'[12:00:05.024]',-0.25
'[12:00:05.028]',-0.26
'[12:00:05.032]',-0.265
'[12:00:05.036]',-0.25
'[12:00:05.040]',-0.28
'[12:00:05.044]',-0.275
'[12:00:05.048]',-0.285
'[12:00:05.052]',-0.315
'[12:00:05.056]',-0.31
'[12:00:05.060]',-0.31
'[12:00:05.064]',-0.32
'[12:00:05.068]',-0.34
'[12:00:05.072]',-0.34
'[12:00:05.076]',-0.32
'[12:00:05.080]',-0.315
'[12:00:05.084]',-0.315
'[12:00:05.088]',-0.335
'[12:00:05.092]',-0.33
'[12:00:05.096]',-0.31
'[12:00:05.100]',-0.28
'[12:00:05.104]',-0.285
'[12:00:05.108]',-0.295
'[12:00:05.112]',-0.28
'[12:00:05.116]',-0.26
'[12:00:05.120]',-0.25
'[12:00:05.124]',-0.27
'[12:00:05.128]',-0.245
'[12:00:05.132]',-0.245
'[12:00:05.136]',-0.245
'[12:00:05.140]',-0.245
'[12:00:05.144]',-0.24
'[12:00:05.148]',-0.24
'[12:00:05.152]',-0.24
'[12:00:05.156]',-0.245
'[12:00:05.160]',-0.245
'[12:00:05.164]',-0.225
'[12:00:05.168]',-0.235
'[12:00:05.172]',-0.23
'[12:00:05.176]',-0.23
'[12:00:05.180]',-0.24
'[12:00:05.184]',-0.245
'[12:00:05.188]',-0.25
'[12:00:05.192]',-0.27
'[12:00:05.196]',-0.275
'[12:00:05.200]',-0.285
'[12:00:05.204]',-0.3
'[12:00:05.208]',-0.305
'[12:00:05.212]',-0.315
'[12:00:05.216]',-0.3
'[12:00:05.220]',-0.315
'[12:00:05.224]',-0.315
'[12:00:05.228]',-0.335
'[12:00:05.232]',-0.34
'[12:00:05.236]',-0.345
'[12:00:05.240]',-0.355
'[12:00:05.244]',-0.36
'[12:00:05.248]',-0.365
'[12:00:05.252]',-0.38
'[12:00:05.256]',-0.35
'[12:00:05.260]',-0.34
'[12:00:05.264]',-0.29
'[12:00:05.268]',-0.285
'[12:00:05.272]',-0.285
'[12:00:05.276]',-0.285
'[12:00:05.280]',-0.28
'[12:00:05.284]',-0.26
'[12:00:05.288]',-0.265
'[12:00:05.292]',-0.255
'[12:00:05.296]',-0.26
'[12:00:05.300]',-0.255
'[12:00:05.304]',-0.265
'[12:00:05.308]',-0.265
'[12:00:05.312]',-0.265
'[12:00:05.316]',-0.255
'[12:00:05.320]',-0.245
'[12:00:05.324]',-0.245
'[12:00:05.328]',-0.26
'[12:00:05.332]',-0.25
'[12:00:05.336]',-0.255
'[12:00:05.340]',-0.26
'[12:00:05.344]',-0.28
'[12:00:05.348]',-0.265
'[12:00:05.352]',-0.29
'[12:00:05.356]',-0.29
'[12:00:05.360]',-0.315
'[12:00:05.364]',-0.32
'[12:00:05.368]',-0.335
'[12:00:05.372]',-0.375
'[12:00:05.376]',-0.42
'[12:00:05.380]',-0.465
'[12:00:05.384]',-0.46
'[12:00:05.388]',-0.44
'[12:00:05.392]',-0.35
'[12:00:05.396]',-0.145
'[12:00:05.400]',0.13
'[12:00:05.404]',0.43
'[12:00:05.408]',0.67
'[12:00:05.412]',0.74
'[12:00:05.416]',0.485
'[12:00:05.420]',-0.06
'[12:00:05.424]',-0.58
'[12:00:05.428]',-0.945
'[12:00:05.432]',-1.04
'[12:00:05.436]',-0.965
'[12:00:05.440]',-0.765
'[12:00:05.444]',-0.595
'[12:00:05.448]',-0.445
'[12:00:05.452]',-0.37
'[12:00:05.456]',-0.335
'[12:00:05.460]',-0.345
'[12:00:05.464]',-0.335
'[12:00:05.468]',-0.315
'[12:00:05.472]',-0.315
'[12:00:05.476]',-0.325
'[12:00:05.480]',-0.33
'[12:00:05.484]',-0.3
'[12:00:05.488]',-0.305
'[12:00:05.492]',-0.295
'[12:00:05.496]',-0.295
'[12:00:05.500]',-0.3
'[12:00:05.504]',-0.275
'[12:00:05.508]',-0.295
'[12:00:05.512]',-0.29
'[12:00:05.516]',-0.28
'[12:00:05.520]',-0.28
'[12:00:05.524]',-0.29
'[12:00:05.528]',-0.315
'[12:00:05.532]',-0.31
'[12:00:05.536]',-0.305
'[12:00:05.540]',-0.33
'[12:00:05.544]',-0.295
'[12:00:05.548]',-0.305
'[12:00:05.552]',-0.305
'[12:00:05.556]',-0.29
'[12:00:05.560]',-0.295
'[12:00:05.564]',-0.29
'[12:00:05.568]',-0.27
'[12:00:05.572]',-0.265
'[12:00:05.576]',-0.26
'[12:00:05.580]',-0.225
'[12:00:05.584]',-0.23
'[12:00:05.588]',-0.21
'[12:00:05.592]',-0.19
'[12:00:05.596]',-0.185
'[12:00:05.600]',-0.15
'[12:00:05.604]',-0.155
'[12:00:05.608]',-0.14
'[12:00:05.612]',-0.13
'[12:00:05.616]',-0.11
'[12:00:05.620]',-0.075
'[12:00:05.624]',-0.045
'[12:00:05.628]',-0.015
'[12:00:05.632]',0.015
'[12:00:05.636]',0.04
'[12:00:05.640]',0.035
'[12:00:05.644]',0.05
'[12:00:05.648]',0.05
'[12:00:05.652]',0.055
'[12:00:05.656]',0.055
'[12:00:05.660]',0.055
'[12:00:05.664]',0.05
'[12:00:05.668]',0.035
'[12:00:05.672]',0.01
'[12:00:05.676]',0.01
'[12:00:05.680]',-0.01
'[12:00:05.684]',-0.03
'[12:00:05.688]',-0.08
'[12:00:05.692]',-0.105
'[12:00:05.696]',-0.135
'[12:00:05.700]',-0.17
'[12:00:05.704]',-0.195
'[12:00:05.708]',-0.21
'[12:00:05.712]',-0.24
'[12:00:05.716]',-0.285
'[12:00:05.720]',-0.28
'[12:00:05.724]',-0.29
'[12:00:05.728]',-0.3
'[12:00:05.732]',-0.31
'[12:00:05.736]',-0.34
'[12:00:05.740]',-0.32
'[12:00:05.744]',-0.35
'[12:00:05.748]',-0.335
'[12:00:05.752]',-0.34
'[12:00:05.756]',-0.35
'[12:00:05.760]',-0.35
'[12:00:05.764]',-0.335
'[12:00:05.768]',-0.305
'[12:00:05.772]',-0.31
'[12:00:05.776]',-0.3
'[12:00:05.780]',-0.285
'[12:00:05.784]',-0.31
'[12:00:05.788]',-0.275
'[12:00:05.792]',-0.265
'[12:00:05.796]',-0.28
'[12:00:05.800]',-0.275
'[12:00:05.804]',-0.29
'[12:00:05.808]',-0.28
'[12:00:05.812]',-0.265
'[12:00:05.816]',-0.255
'[12:00:05.820]',-0.275
'[12:00:05.824]',-0.275
'[12:00:05.828]',-0.27
'[12:00:05.832]',-0.29
'[12:00:05.836]',-0.325
'[12:00:05.840]',-0.315
'[12:00:05.844]',-0.305
'[12:00:05.848]',-0.3
'[12:00:05.852]',-0.32
'[12:00:05.856]',-0.335
'[12:00:05.860]',-0.33
'[12:00:05.864]',-0.345
'[12:00:05.868]',-0.33
'[12:00:05.872]',-0.325
'[12:00:05.876]',-0.325
'[12:00:05.880]',-0.345
'[12:00:05.884]',-0.355
'[12:00:05.888]',-0.355
'[12:00:05.892]',-0.36
'[12:00:05.896]',-0.36
'[12:00:05.900]',-0.36
'[12:00:05.904]',-0.345
'[12:00:05.908]',-0.35
'[12:00:05.912]',-0.36
'[12:00:05.916]',-0.32
'[12:00:05.920]',-0.29
'[12:00:05.924]',-0.285
'[12:00:05.928]',-0.305
'[12:00:05.932]',-0.315
'[12:00:05.936]',-0.315
'[12:00:05.940]',-0.305
'[12:00:05.944]',-0.3
'[12:00:05.948]',-0.28
'[12:00:05.952]',-0.28
'[12:00:05.956]',-0.295
'[12:00:05.960]',-0.275
'[12:00:05.964]',-0.27
'[12:00:05.968]',-0.265
'[12:00:05.972]',-0.245
'[12:00:05.976]',-0.25
'[12:00:05.980]',-0.245
'[12:00:05.984]',-0.24
'[12:00:05.988]',-0.23
'[12:00:05.992]',-0.245
'[12:00:05.996]',-0.245
'[12:00:06.000]',-0.25
'[12:00:06.004]',-0.245
'[12:00:06.008]',-0.24
'[12:00:06.012]',-0.26
'[12:00:06.016]',-0.275
'[12:00:06.020]',-0.275
'[12:00:06.024]',-0.27
'[12:00:06.028]',-0.265
'[12:00:06.032]',-0.28
'[12:00:06.036]',-0.285
'[12:00:06.040]',-0.305
'[12:00:06.044]',-0.3
'[12:00:06.048]',-0.3
'[12:00:06.052]',-0.325
'[12:00:06.056]',-0.33
'[12:00:06.060]',-0.345
'[12:00:06.064]',-0.36
'[12:00:06.068]',-0.34
'[12:00:06.072]',-0.34
'[12:00:06.076]',-0.34
'[12:00:06.080]',-0.32
'[12:00:06.084]',-0.32
'[12:00:06.088]',-0.32
'[12:00:06.092]',-0.32
'[12:00:06.096]',-0.32
'[12:00:06.100]',-0.35
'[12:00:06.104]',-0.385
'[12:00:06.108]',-0.43
'[12:00:06.112]',-0.45
'[12:00:06.116]',-0.435
'[12:00:06.120]',-0.38
'[12:00:06.124]',-0.215
'[12:00:06.128]',0.05
'[12:00:06.132]',0.355
'[12:00:06.136]',0.67
'[12:00:06.140]',0.83
'[12:00:06.144]',0.71
'[12:00:06.148]',0.23
'[12:00:06.152]',-0.335
'[12:00:06.156]',-0.775
'[12:00:06.160]',-0.94
'[12:00:06.164]',-0.855
'[12:00:06.168]',-0.665
'[12:00:06.172]',-0.475
'[12:00:06.176]',-0.34
'[12:00:06.180]',-0.29
'[12:00:06.184]',-0.28
'[12:00:06.188]',-0.3
'[12:00:06.192]',-0.31
'[12:00:06.196]',-0.34
'[12:00:06.200]',-0.33
'[12:00:06.204]',-0.325
'[12:00:06.208]',-0.35
'[12:00:06.212]',-0.36
'[12:00:06.216]',-0.32
'[12:00:06.220]',-0.315
'[12:00:06.224]',-0.305
'[12:00:06.228]',-0.295
'[12:00:06.232]',-0.29
'[12:00:06.236]',-0.3
'[12:00:06.240]',-0.31
'[12:00:06.244]',-0.305
'[12:00:06.248]',-0.3
'[12:00:06.252]',-0.285
'[12:00:06.256]',-0.275
'[12:00:06.260]',-0.28
'[12:00:06.264]',-0.255
'[12:00:06.268]',-0.26
'[12:00:06.272]',-0.26
'[12:00:06.276]',-0.235
'[12:00:06.280]',-0.215
'[12:00:06.284]',-0.22
'[12:00:06.288]',-0.2
'[12:00:06.292]',-0.21
'[12:00:06.296]',-0.2
'[12:00:06.300]',-0.2
'[12:00:06.304]',-0.175
'[12:00:06.308]',-0.185
'[12:00:06.312]',-0.165
'[12:00:06.316]',-0.145
'[12:00:06.320]',-0.13
'[12:00:06.324]',-0.115
'[12:00:06.328]',-0.11
'[12:00:06.332]',-0.105
'[12:00:06.336]',-0.08
'[12:00:06.340]',-0.065
'[12:00:06.344]',-0.04
'[12:00:06.348]',0.005
'[12:00:06.352]',0.015
'[12:00:06.356]',0.035
'[12:00:06.360]',0.03
'[12:00:06.364]',0.07
'[12:00:06.368]',0.075
'[12:00:06.372]',0.07
'[12:00:06.376]',0.07
'[12:00:06.380]',0.07
'[12:00:06.384]',0.06
'[12:00:06.388]',0.065
'[12:00:06.392]',0.045
'[12:00:06.396]',0.005
'[12:00:06.400]',0.005
'[12:00:06.404]',-0.005
'[12:00:06.408]',-0.05
'[12:00:06.412]',-0.09
'[12:00:06.416]',-0.11
'[12:00:06.420]',-0.125
'[12:00:06.424]',-0.155
'[12:00:06.428]',-0.145
'[12:00:06.432]',-0.155
'[12:00:06.436]',-0.17
'[12:00:06.440]',-0.19
'[12:00:06.444]',-0.21
'[12:00:06.448]',-0.2
'[12:00:06.452]',-0.225
'[12:00:06.456]',-0.235
'[12:00:06.460]',-0.25
'[12:00:06.464]',-0.275
'[12:00:06.468]',-0.285
'[12:00:06.472]',-0.28
'[12:00:06.476]',-0.295
'[12:00:06.480]',-0.275
'[12:00:06.484]',-0.295
'[12:00:06.488]',-0.3
'[12:00:06.492]',-0.32
'[12:00:06.496]',-0.32
'[12:00:06.500]',-0.32
'[12:00:06.504]',-0.315
'[12:00:06.508]',-0.335
'[12:00:06.512]',-0.32
'[12:00:06.516]',-0.34
'[12:00:06.520]',-0.32
'[12:00:06.524]',-0.31
'[12:00:06.528]',-0.3
'[12:00:06.532]',-0.31
'[12:00:06.536]',-0.32
'[12:00:06.540]',-0.31
'[12:00:06.544]',-0.285
'[12:00:06.548]',-0.285
'[12:00:06.552]',-0.3
'[12:00:06.556]',-0.28
'[12:00:06.560]',-0.295
'[12:00:06.564]',-0.3
'[12:00:06.568]',-0.315
'[12:00:06.572]',-0.305
'[12:00:06.576]',-0.295
'[12:00:06.580]',-0.3
'[12:00:06.584]',-0.3
'[12:00:06.588]',-0.3
'[12:00:06.592]',-0.265
'[12:00:06.596]',-0.275
'[12:00:06.600]',-0.28
'[12:00:06.604]',-0.285
'[12:00:06.608]',-0.27
'[12:00:06.612]',-0.29
'[12:00:06.616]',-0.29
'[12:00:06.620]',-0.275
'[12:00:06.624]',-0.27
'[12:00:06.628]',-0.28
'[12:00:06.632]',-0.3
'[12:00:06.636]',-0.285
'[12:00:06.640]',-0.285
'[12:00:06.644]',-0.285
'[12:00:06.648]',-0.3
'[12:00:06.652]',-0.32
'[12:00:06.656]',-0.32
'[12:00:06.660]',-0.32
'[12:00:06.664]',-0.36
'[12:00:06.668]',-0.37
'[12:00:06.672]',-0.345
'[12:00:06.676]',-0.335
'[12:00:06.680]',-0.32
'[12:00:06.684]',-0.32
'[12:00:06.688]',-0.33
'[12:00:06.692]',-0.34
'[12:00:06.696]',-0.335
'[12:00:06.700]',-0.315
'[12:00:06.704]',-0.31
'[12:00:06.708]',-0.32
'[12:00:06.712]',-0.29
'[12:00:06.716]',-0.29
'[12:00:06.720]',-0.3
'[12:00:06.724]',-0.315
'[12:00:06.728]',-0.305
'[12:00:06.732]',-0.29
'[12:00:06.736]',-0.275
'[12:00:06.740]',-0.285
'[12:00:06.744]',-0.28
'[12:00:06.748]',-0.27
'[12:00:06.752]',-0.26
'[12:00:06.756]',-0.26
'[12:00:06.760]',-0.265
'[12:00:06.764]',-0.28
'[12:00:06.768]',-0.27
'[12:00:06.772]',-0.28
'[12:00:06.776]',-0.28
'[12:00:06.780]',-0.3
'[12:00:06.784]',-0.29
'[12:00:06.788]',-0.29
'[12:00:06.792]',-0.295
'[12:00:06.796]',-0.32
'[12:00:06.800]',-0.31
'[12:00:06.804]',-0.305
'[12:00:06.808]',-0.32
'[12:00:06.812]',-0.35
'[12:00:06.816]',-0.34
'[12:00:06.820]',-0.32
'[12:00:06.824]',-0.355
'[12:00:06.828]',-0.345
'[12:00:06.832]',-0.345
'[12:00:06.836]',-0.335
'[12:00:06.840]',-0.345
'[12:00:06.844]',-0.34
'[12:00:06.848]',-0.325
'[12:00:06.852]',-0.355
'[12:00:06.856]',-0.395
'[12:00:06.860]',-0.445
'[12:00:06.864]',-0.44
'[12:00:06.868]',-0.4
'[12:00:06.872]',-0.295
'[12:00:06.876]',-0.065
'[12:00:06.880]',0.22
'[12:00:06.884]',0.52
'[12:00:06.888]',0.785
'[12:00:06.892]',0.825
'[12:00:06.896]',0.47
'[12:00:06.900]',-0.09
'[12:00:06.904]',-0.62
'[12:00:06.908]',-0.885
'[12:00:06.912]',-0.885
'[12:00:06.916]',-0.685
'[12:00:06.920]',-0.51
'[12:00:06.924]',-0.35
'[12:00:06.928]',-0.285
'[12:00:06.932]',-0.28
'[12:00:06.936]',-0.27
'[12:00:06.940]',-0.275
'[12:00:06.944]',-0.265
'[12:00:06.948]',-0.255
'[12:00:06.952]',-0.275
'[12:00:06.956]',-0.28
'[12:00:06.960]',-0.27
'[12:00:06.964]',-0.285
'[12:00:06.968]',-0.29
'[12:00:06.972]',-0.31
'[12:00:06.976]',-0.315
'[12:00:06.980]',-0.315
'[12:00:06.984]',-0.32
'[12:00:06.988]',-0.32
'[12:00:06.992]',-0.315
'[12:00:06.996]',-0.305
'[12:00:07.000]',-0.3
'[12:00:07.004]',-0.275
'[12:00:07.008]',-0.24
'[12:00:07.012]',-0.225
'[12:00:07.016]',-0.235
'[12:00:07.020]',-0.225
'[12:00:07.024]',-0.215
'[12:00:07.028]',-0.19
'[12:00:07.032]',-0.195
'[12:00:07.036]',-0.18
'[12:00:07.040]',-0.19
'[12:00:07.044]',-0.155
'[12:00:07.048]',-0.15
'[12:00:07.052]',-0.145
'[12:00:07.056]',-0.15
'[12:00:07.060]',-0.13
'[12:00:07.064]',-0.115
'[12:00:07.068]',-0.115
'[12:00:07.072]',-0.1
'[12:00:07.076]',-0.075
'[12:00:07.080]',-0.075
'[12:00:07.084]',-0.07
'[12:00:07.088]',-0.065
'[12:00:07.092]',-0.04
'[12:00:07.096]',0
'[12:00:07.100]',0.03
'[12:00:07.104]',0.035
'[12:00:07.108]',0.045
'[12:00:07.112]',0.05
'[12:00:07.116]',0.055
'[12:00:07.120]',0.05
'[12:00:07.124]',0.015
'[12:00:07.128]',0.015
'[12:00:07.132]',0.01
'[12:00:07.136]',0.01
'[12:00:07.140]',0.015
'[12:00:07.144]',0.005
'[12:00:07.148]',-0.005
'[12:00:07.152]',-0.025
'[12:00:07.156]',-0.02
'[12:00:07.160]',-0.04
'[12:00:07.164]',-0.075
'[12:00:07.168]',-0.06
'[12:00:07.172]',-0.095
'[12:00:07.176]',-0.095
'[12:00:07.180]',-0.115
'[12:00:07.184]',-0.125
'[12:00:07.188]',-0.155
'[12:00:07.192]',-0.17
'[12:00:07.196]',-0.185
'[12:00:07.200]',-0.18
'[12:00:07.204]',-0.195
'[12:00:07.208]',-0.195
'[12:00:07.212]',-0.205
'[12:00:07.216]',-0.23
'[12:00:07.220]',-0.23
'[12:00:07.224]',-0.24
'[12:00:07.228]',-0.245
'[12:00:07.232]',-0.275
'[12:00:07.236]',-0.3
'[12:00:07.240]',-0.305
'[12:00:07.244]',-0.32
'[12:00:07.248]',-0.295
'[12:00:07.252]',-0.3
'[12:00:07.256]',-0.315
'[12:00:07.260]',-0.32
'[12:00:07.264]',-0.34
'[12:00:07.268]',-0.315
'[12:00:07.272]',-0.305
'[12:00:07.276]',-0.29
'[12:00:07.280]',-0.295
'[12:00:07.284]',-0.3
'[12:00:07.288]',-0.295
'[12:00:07.292]',-0.305
'[12:00:07.296]',-0.285
'[12:00:07.300]',-0.295
'[12:00:07.304]',-0.285
'[12:00:07.308]',-0.28
'[12:00:07.312]',-0.275
'[12:00:07.316]',-0.26
'[12:00:07.320]',-0.26
'[12:00:07.324]',-0.245
'[12:00:07.328]',-0.25
'[12:00:07.332]',-0.235
'[12:00:07.336]',-0.24
'[12:00:07.340]',-0.24
'[12:00:07.344]',-0.235
'[12:00:07.348]',-0.245
'[12:00:07.352]',-0.25
'[12:00:07.356]',-0.265
'[12:00:07.360]',-0.24
'[12:00:07.364]',-0.27
'[12:00:07.368]',-0.27
'[12:00:07.372]',-0.275
'[12:00:07.376]',-0.285
'[12:00:07.380]',-0.295
'[12:00:07.384]',-0.325
'[12:00:07.388]',-0.335
'[12:00:07.392]',-0.345
'[12:00:07.396]',-0.355
'[12:00:07.400]',-0.355
'[12:00:07.404]',-0.32
'[12:00:07.408]',-0.32
'[12:00:07.412]',-0.305
'[12:00:07.416]',-0.28
'[12:00:07.420]',-0.295
'[12:00:07.424]',-0.31
'[12:00:07.428]',-0.295
'[12:00:07.432]',-0.29
'[12:00:07.436]',-0.305
'[12:00:07.440]',-0.34
'[12:00:07.444]',-0.4
'[12:00:07.448]',-0.46
'[12:00:07.452]',-0.435
'[12:00:07.456]',-0.385
'[12:00:07.460]',-0.235
'[12:00:07.464]',0.05
'[12:00:07.468]',0.385
'[12:00:07.472]',0.685
'[12:00:07.476]',0.835
'[12:00:07.480]',0.645
'[12:00:07.484]',0.16
'[12:00:07.488]',-0.37
'[12:00:07.492]',-0.81
'[12:00:07.496]',-0.92
'[12:00:07.500]',-0.825
'[12:00:07.504]',-0.67
'[12:00:07.508]',-0.47
'[12:00:07.512]',-0.37
'[12:00:07.516]',-0.315
'[12:00:07.520]',-0.32
'[12:00:07.524]',-0.315
'[12:00:07.528]',-0.32
'[12:00:07.532]',-0.32
'[12:00:07.536]',-0.33
'[12:00:07.540]',-0.335
'[12:00:07.544]',-0.355
'[12:00:07.548]',-0.33
'[12:00:07.552]',-0.33
'[12:00:07.556]',-0.31
'[12:00:07.560]',-0.305
'[12:00:07.564]',-0.3
'[12:00:07.568]',-0.28
'[12:00:07.572]',-0.29
'[12:00:07.576]',-0.28
'[12:00:07.580]',-0.275
'[12:00:07.584]',-0.28
'[12:00:07.588]',-0.265
'[12:00:07.592]',-0.29
'[12:00:07.596]',-0.26
'[12:00:07.600]',-0.25
'[12:00:07.604]',-0.265
'[12:00:07.608]',-0.235
'[12:00:07.612]',-0.21
'[12:00:07.616]',-0.215
'[12:00:07.620]',-0.21
'[12:00:07.624]',-0.205
'[12:00:07.628]',-0.17
'[12:00:07.632]',-0.155
'[12:00:07.636]',-0.13
'[12:00:07.640]',-0.115
'[12:00:07.644]',-0.11
'[12:00:07.648]',-0.08
'[12:00:07.652]',-0.08
'[12:00:07.656]',-0.085
'[12:00:07.660]',-0.055
'[12:00:07.664]',-0.03
'[12:00:07.668]',-0.015
'[12:00:07.672]',0
'[12:00:07.676]',0.01
'[12:00:07.680]',0.015
'[12:00:07.684]',0.03
'[12:00:07.688]',0.015
'[12:00:07.692]',0.02
'[12:00:07.696]',0.03
'[12:00:07.700]',0.01
'[12:00:07.704]',0.01
'[12:00:07.708]',0.02
'[12:00:07.712]',0.03
'[12:00:07.716]',0.02
'[12:00:07.720]',0.01
'[12:00:07.724]',0
'[12:00:07.728]',-0.015
'[12:00:07.732]',-0.025
'[12:00:07.736]',-0.045
'[12:00:07.740]',-0.08
'[12:00:07.744]',-0.115
'[12:00:07.748]',-0.13
'[12:00:07.752]',-0.135
'[12:00:07.756]',-0.15
'[12:00:07.760]',-0.165
'[12:00:07.764]',-0.185
'[12:00:07.768]',-0.2
'[12:00:07.772]',-0.205
'[12:00:07.776]',-0.225
'[12:00:07.780]',-0.265
'[12:00:07.784]',-0.255
'[12:00:07.788]',-0.275
'[12:00:07.792]',-0.26
'[12:00:07.796]',-0.245
'[12:00:07.800]',-0.25
'[12:00:07.804]',-0.27
'[12:00:07.808]',-0.265
'[12:00:07.812]',-0.265
'[12:00:07.816]',-0.27
'[12:00:07.820]',-0.26
'[12:00:07.824]',-0.265
'[12:00:07.828]',-0.255
'[12:00:07.832]',-0.265
'[12:00:07.836]',-0.29
'[12:00:07.840]',-0.285
'[12:00:07.844]',-0.27
'[12:00:07.848]',-0.265
'[12:00:07.852]',-0.28
'[12:00:07.856]',-0.28
'[12:00:07.860]',-0.28
'[12:00:07.864]',-0.26
'[12:00:07.868]',-0.25
'[12:00:07.872]',-0.265
'[12:00:07.876]',-0.275
'[12:00:07.880]',-0.275
'[12:00:07.884]',-0.25
'[12:00:07.888]',-0.27
'[12:00:07.892]',-0.245
'[12:00:07.896]',-0.26
'[12:00:07.900]',-0.245
'[12:00:07.904]',-0.24
'[12:00:07.908]',-0.24
'[12:00:07.912]',-0.225
'[12:00:07.916]',-0.23
'[12:00:07.920]',-0.235
'[12:00:07.924]',-0.23
'[12:00:07.928]',-0.225
'[12:00:07.932]',-0.21
'[12:00:07.936]',-0.215
'[12:00:07.940]',-0.19
'[12:00:07.944]',-0.21
'[12:00:07.948]',-0.21
'[12:00:07.952]',-0.24
'[12:00:07.956]',-0.235
'[12:00:07.960]',-0.245
'[12:00:07.964]',-0.255
'[12:00:07.968]',-0.265
'[12:00:07.972]',-0.28
'[12:00:07.976]',-0.275
'[12:00:07.980]',-0.265
'[12:00:07.984]',-0.285
'[12:00:07.988]',-0.27
'[12:00:07.992]',-0.315
'[12:00:07.996]',-0.3
'[12:00:08.000]',-0.315
'[12:00:08.004]',-0.335
'[12:00:08.008]',-0.33
'[12:00:08.012]',-0.305
'[12:00:08.016]',-0.275
'[12:00:08.020]',-0.265
'[12:00:08.024]',-0.24
'[12:00:08.028]',-0.23
'[12:00:08.032]',-0.24
'[12:00:08.036]',-0.26
'[12:00:08.040]',-0.22
'[12:00:08.044]',-0.25
'[12:00:08.048]',-0.22
'[12:00:08.052]',-0.235
'[12:00:08.056]',-0.23
'[12:00:08.060]',-0.23
'[12:00:08.064]',-0.23
'[12:00:08.068]',-0.24
'[12:00:08.072]',-0.235
'[12:00:08.076]',-0.23
'[12:00:08.080]',-0.235
'[12:00:08.084]',-0.23
'[12:00:08.088]',-0.24
'[12:00:08.092]',-0.235
'[12:00:08.096]',-0.205
'[12:00:08.100]',-0.22
'[12:00:08.104]',-0.23
'[12:00:08.108]',-0.22
'[12:00:08.112]',-0.25
'[12:00:08.116]',-0.23
'[12:00:08.120]',-0.245
'[12:00:08.124]',-0.23
'[12:00:08.128]',-0.26
'[12:00:08.132]',-0.255
'[12:00:08.136]',-0.25
'[12:00:08.140]',-0.28
'[12:00:08.144]',-0.335
'[12:00:08.148]',-0.375
'[12:00:08.152]',-0.385
'[12:00:08.156]',-0.375
'[12:00:08.160]',-0.285
'[12:00:08.164]',-0.075
'[12:00:08.168]',0.19
'[12:00:08.172]',0.53
'[12:00:08.176]',0.77
'[12:00:08.180]',0.815
'[12:00:08.184]',0.55
'[12:00:08.188]',-0.005
'[12:00:08.192]',-0.56
'[12:00:08.196]',-0.895
'[12:00:08.200]',-0.925
'[12:00:08.204]',-0.8
'[12:00:08.208]',-0.605
'[12:00:08.212]',-0.44
'[12:00:08.216]',-0.345
'[12:00:08.220]',-0.31
'[12:00:08.224]',-0.29
'[12:00:08.228]',-0.29
'[12:00:08.232]',-0.295
'[12:00:08.236]',-0.29
'[12:00:08.240]',-0.295
'[12:00:08.244]',-0.265
'[12:00:08.248]',-0.285
'[12:00:08.252]',-0.265
'[12:00:08.256]',-0.26
'[12:00:08.260]',-0.26
'[12:00:08.264]',-0.26
'[12:00:08.268]',-0.265
'[12:00:08.272]',-0.25
'[12:00:08.276]',-0.26
'[12:00:08.280]',-0.225
'[12:00:08.284]',-0.24
'[12:00:08.288]',-0.22
'[12:00:08.292]',-0.23
'[12:00:08.296]',-0.235
'[12:00:08.300]',-0.225
'[12:00:08.304]',-0.22
'[12:00:08.308]',-0.225
'[12:00:08.312]',-0.225
'[12:00:08.316]',-0.245
'[12:00:08.320]',-0.24
'[12:00:08.324]',-0.235
'[12:00:08.328]',-0.255
'[12:00:08.332]',-0.275
'[12:00:08.336]',-0.275
'[12:00:08.340]',-0.265
'[12:00:08.344]',-0.275
'[12:00:08.348]',-0.235
'[12:00:08.352]',-0.2
'[12:00:08.356]',-0.19
'[12:00:08.360]',-0.175
'[12:00:08.364]',-0.15
'[12:00:08.368]',-0.135
'[12:00:08.372]',-0.135
'[12:00:08.376]',-0.105
'[12:00:08.380]',-0.065
'[12:00:08.384]',-0.045
'[12:00:08.388]',-0.025
'[12:00:08.392]',-0.03
'[12:00:08.396]',0
'[12:00:08.400]',0.02
'[12:00:08.404]',0
'[12:00:08.408]',0.025
'[12:00:08.412]',0.04
'[12:00:08.416]',0.055
'[12:00:08.420]',0.02
'[12:00:08.424]',0.025
'[12:00:08.428]',0.005
'[12:00:08.432]',0.005
'[12:00:08.436]',-0.02
'[12:00:08.440]',-0.025
'[12:00:08.444]',-0.01
'[12:00:08.448]',-0.045
'[12:00:08.452]',-0.065
'[12:00:08.456]',-0.1
'[12:00:08.460]',-0.12
'[12:00:08.464]',-0.125
'[12:00:08.468]',-0.155
'[12:00:08.472]',-0.175
'[12:00:08.476]',-0.165
'[12:00:08.480]',-0.205
'[12:00:08.484]',-0.225
'[12:00:08.488]',-0.21
'[12:00:08.492]',-0.245
'[12:00:08.496]',-0.265
'[12:00:08.500]',-0.3
'[12:00:08.504]',-0.295
'[12:00:08.508]',-0.3
'[12:00:08.512]',-0.32
'[12:00:08.516]',-0.31
'[12:00:08.520]',-0.35
'[12:00:08.524]',-0.32
'[12:00:08.528]',-0.3
'[12:00:08.532]',-0.3
'[12:00:08.536]',-0.28
'[12:00:08.540]',-0.29
'[12:00:08.544]',-0.275
'[12:00:08.548]',-0.305
'[12:00:08.552]',-0.3
'[12:00:08.556]',-0.3
'[12:00:08.560]',-0.305
'[12:00:08.564]',-0.31
'[12:00:08.568]',-0.32
'[12:00:08.572]',-0.29
'[12:00:08.576]',-0.29
'[12:00:08.580]',-0.28
'[12:00:08.584]',-0.295
'[12:00:08.588]',-0.295
'[12:00:08.592]',-0.28
'[12:00:08.596]',-0.275
'[12:00:08.600]',-0.285
'[12:00:08.604]',-0.28
'[12:00:08.608]',-0.275
'[12:00:08.612]',-0.265
'[12:00:08.616]',-0.27
'[12:00:08.620]',-0.27
'[12:00:08.624]',-0.295
'[12:00:08.628]',-0.295
'[12:00:08.632]',-0.28
'[12:00:08.636]',-0.3
'[12:00:08.640]',-0.3
'[12:00:08.644]',-0.33
'[12:00:08.648]',-0.33
'[12:00:08.652]',-0.32
'[12:00:08.656]',-0.345
'[12:00:08.660]',-0.335
'[12:00:08.664]',-0.32
'[12:00:08.668]',-0.325
'[12:00:08.672]',-0.35
'[12:00:08.676]',-0.355
'[12:00:08.680]',-0.35
'[12:00:08.684]',-0.405
'[12:00:08.688]',-0.42
'[12:00:08.692]',-0.395
'[12:00:08.696]',-0.4
'[12:00:08.700]',-0.39
'[12:00:08.704]',-0.345
'[12:00:08.708]',-0.33
'[12:00:08.712]',-0.325
'[12:00:08.716]',-0.335
'[12:00:08.720]',-0.335
'[12:00:08.724]',-0.32
'[12:00:08.728]',-0.32
'[12:00:08.732]',-0.295
'[12:00:08.736]',-0.31
'[12:00:08.740]',-0.295
'[12:00:08.744]',-0.29
'[12:00:08.748]',-0.285
'[12:00:08.752]',-0.295
'[12:00:08.756]',-0.295
'[12:00:08.760]',-0.295
'[12:00:08.764]',-0.285
'[12:00:08.768]',-0.265
'[12:00:08.772]',-0.28
'[12:00:08.776]',-0.265
'[12:00:08.780]',-0.24
'[12:00:08.784]',-0.245
'[12:00:08.788]',-0.25
'[12:00:08.792]',-0.25
'[12:00:08.796]',-0.26
'[12:00:08.800]',-0.255
'[12:00:08.804]',-0.26
'[12:00:08.808]',-0.275
'[12:00:08.812]',-0.325
'[12:00:08.816]',-0.38
'[12:00:08.820]',-0.38
'[12:00:08.824]',-0.385
'[12:00:08.828]',-0.3
'[12:00:08.832]',-0.12
'[12:00:08.836]',0.125
'[12:00:08.840]',0.42
'[12:00:08.844]',0.675
'[12:00:08.848]',0.74
'[12:00:08.852]',0.53
'[12:00:08.856]',0.02
'[12:00:08.860]',-0.55
'[12:00:08.864]',-0.935
'[12:00:08.868]',-1
'[12:00:08.872]',-0.905
'[12:00:08.876]',-0.675
'[12:00:08.880]',-0.51
'[12:00:08.884]',-0.405
'[12:00:08.888]',-0.355
'[12:00:08.892]',-0.315
'[12:00:08.896]',-0.315
'[12:00:08.900]',-0.31
'[12:00:08.904]',-0.31
'[12:00:08.908]',-0.305
'[12:00:08.912]',-0.29
'[12:00:08.916]',-0.305
'[12:00:08.920]',-0.28
'[12:00:08.924]',-0.275
'[12:00:08.928]',-0.275
'[12:00:08.932]',-0.26
'[12:00:08.936]',-0.24
'[12:00:08.940]',-0.235
'[12:00:08.944]',-0.21
'[12:00:08.948]',-0.22
'[12:00:08.952]',-0.22
'[12:00:08.956]',-0.205
'[12:00:08.960]',-0.205
'[12:00:08.964]',-0.19
'[12:00:08.968]',-0.195
'[12:00:08.972]',-0.185
'[12:00:08.976]',-0.165
'[12:00:08.980]',-0.17
'[12:00:08.984]',-0.2
'[12:00:08.988]',-0.18
'[12:00:08.992]',-0.2
'[12:00:08.996]',-0.19
'[12:00:09.000]',-0.22
'[12:00:09.004]',-0.235
'[12:00:09.008]',-0.255
'[12:00:09.012]',-0.25
'[12:00:09.016]',-0.235
'[12:00:09.020]',-0.245
'[12:00:09.024]',-0.22
'[12:00:09.028]',-0.205
'[12:00:09.032]',-0.17
'[12:00:09.036]',-0.13
'[12:00:09.040]',-0.105
'[12:00:09.044]',-0.08
'[12:00:09.048]',-0.05
'[12:00:09.052]',-0.02
'[12:00:09.056]',0.015
'[12:00:09.060]',0.025
'[12:00:09.064]',0.04
'[12:00:09.068]',0.045
'[12:00:09.072]',0.055
'[12:00:09.076]',0.045
'[12:00:09.080]',0.065
'[12:00:09.084]',0.075
'[12:00:09.088]',0.075
'[12:00:09.092]',0.07
'[12:00:09.096]',0.08
'[12:00:09.100]',0.075
'[12:00:09.104]',0.04
'[12:00:09.108]',0.005
'[12:00:09.112]',0.015
'[12:00:09.116]',-0.02
'[12:00:09.120]',-0.055
'[12:00:09.124]',-0.055
'[12:00:09.128]',-0.06
'[12:00:09.132]',-0.095
'[12:00:09.136]',-0.1
'[12:00:09.140]',-0.14
'[12:00:09.144]',-0.16
'[12:00:09.148]',-0.185
'[12:00:09.152]',-0.23
'[12:00:09.156]',-0.235
'[12:00:09.160]',-0.26
'[12:00:09.164]',-0.285
'[12:00:09.168]',-0.3
'[12:00:09.172]',-0.31
'[12:00:09.176]',-0.32
'[12:00:09.180]',-0.32
'[12:00:09.184]',-0.325
'[12:00:09.188]',-0.3
'[12:00:09.192]',-0.32
'[12:00:09.196]',-0.36
'[12:00:09.200]',-0.375
'[12:00:09.204]',-0.35
'[12:00:09.208]',-0.345
'[12:00:09.212]',-0.31
'[12:00:09.216]',-0.295
'[12:00:09.220]',-0.29
'[12:00:09.224]',-0.28
'[12:00:09.228]',-0.27
'[12:00:09.232]',-0.285
'[12:00:09.236]',-0.265
'[12:00:09.240]',-0.275
'[12:00:09.244]',-0.29
'[12:00:09.248]',-0.27
'[12:00:09.252]',-0.28
'[12:00:09.256]',-0.275
'[12:00:09.260]',-0.28
'[12:00:09.264]',-0.27
'[12:00:09.268]',-0.3
'[12:00:09.272]',-0.275
'[12:00:09.276]',-0.27
'[12:00:09.280]',-0.25
'[12:00:09.284]',-0.29
'[12:00:09.288]',-0.265
'[12:00:09.292]',-0.26
'[12:00:09.296]',-0.27
'[12:00:09.300]',-0.29
'[12:00:09.304]',-0.285
'[12:00:09.308]',-0.28
'[12:00:09.312]',-0.285
'[12:00:09.316]',-0.315
'[12:00:09.320]',-0.32
'[12:00:09.324]',-0.315
'[12:00:09.328]',-0.3
'[12:00:09.332]',-0.31
'[12:00:09.336]',-0.31
'[12:00:09.340]',-0.35
'[12:00:09.344]',-0.4
'[12:00:09.348]',-0.465
'[12:00:09.352]',-0.495
'[12:00:09.356]',-0.495
'[12:00:09.360]',-0.435
'[12:00:09.364]',-0.275
'[12:00:09.368]',0.005
'[12:00:09.372]',0.31
'[12:00:09.376]',0.595
'[12:00:09.380]',0.73
'[12:00:09.384]',0.615
'[12:00:09.388]',0.13
'[12:00:09.392]',-0.39
'[12:00:09.396]',-0.805
'[12:00:09.400]',-0.9
'[12:00:09.404]',-0.805
'[12:00:09.408]',-0.58
'[12:00:09.412]',-0.385
'[12:00:09.416]',-0.285
'[12:00:09.420]',-0.21
'[12:00:09.424]',-0.22
'[12:00:09.428]',-0.225
'[12:00:09.432]',-0.245
'[12:00:09.436]',-0.21
'[12:00:09.440]',-0.225
'[12:00:09.444]',-0.21
'[12:00:09.448]',-0.24
'[12:00:09.452]',-0.24
'[12:00:09.456]',-0.255
'[12:00:09.460]',-0.26
'[12:00:09.464]',-0.255
'[12:00:09.468]',-0.265
'[12:00:09.472]',-0.28
'[12:00:09.476]',-0.28
'[12:00:09.480]',-0.28
'[12:00:09.484]',-0.28
'[12:00:09.488]',-0.27
'[12:00:09.492]',-0.265
'[12:00:09.496]',-0.285
'[12:00:09.500]',-0.275
'[12:00:09.504]',-0.285
'[12:00:09.508]',-0.26
'[12:00:09.512]',-0.255
'[12:00:09.516]',-0.275
'[12:00:09.520]',-0.255
'[12:00:09.524]',-0.25
'[12:00:09.528]',-0.27
'[12:00:09.532]',-0.255
'[12:00:09.536]',-0.25
'[12:00:09.540]',-0.23
'[12:00:09.544]',-0.225
'[12:00:09.548]',-0.215
'[12:00:09.552]',-0.21
'[12:00:09.556]',-0.15
'[12:00:09.560]',-0.17
'[12:00:09.564]',-0.17
'[12:00:09.568]',-0.195
'[12:00:09.572]',-0.155
'[12:00:09.576]',-0.115
'[12:00:09.580]',-0.05
'[12:00:09.584]',0
'[12:00:09.588]',0.045
'[12:00:09.592]',0.065
'[12:00:09.596]',0.085
'[12:00:09.600]',0.1
'[12:00:09.604]',0.08
'[12:00:09.608]',0.09
'[12:00:09.612]',0.095
'[12:00:09.616]',0.105
'[12:00:09.620]',0.09
'[12:00:09.624]',0.065
'[12:00:09.628]',0.07
'[12:00:09.632]',0.04
'[12:00:09.636]',0.04
'[12:00:09.640]',0.01
'[12:00:09.644]',-0.02
'[12:00:09.648]',-0.02
'[12:00:09.652]',-0.05
'[12:00:09.656]',-0.115
'[12:00:09.660]',-0.105
'[12:00:09.664]',-0.14
'[12:00:09.668]',-0.16
'[12:00:09.672]',-0.17
'[12:00:09.676]',-0.2
'[12:00:09.680]',-0.23
'[12:00:09.684]',-0.23
'[12:00:09.688]',-0.25
'[12:00:09.692]',-0.26
'[12:00:09.696]',-0.285
'[12:00:09.700]',-0.27
'[12:00:09.704]',-0.28
'[12:00:09.708]',-0.285
'[12:00:09.712]',-0.315
'[12:00:09.716]',-0.32
'[12:00:09.720]',-0.32
'[12:00:09.724]',-0.33
'[12:00:09.728]',-0.32
'[12:00:09.732]',-0.35
'[12:00:09.736]',-0.34
'[12:00:09.740]',-0.35
'[12:00:09.744]',-0.375
'[12:00:09.748]',-0.37
'[12:00:09.752]',-0.365
'[12:00:09.756]',-0.325
'[12:00:09.760]',-0.27
'[12:00:09.764]',-0.235
'[12:00:09.768]',-0.21
'[12:00:09.772]',-0.21
'[12:00:09.776]',-0.19
'[12:00:09.780]',-0.2
'[12:00:09.784]',-0.21
'[12:00:09.788]',-0.2
'[12:00:09.792]',-0.21
'[12:00:09.796]',-0.21
'[12:00:09.800]',-0.23
'[12:00:09.804]',-0.21
'[12:00:09.808]',-0.225
'[12:00:09.812]',-0.2
'[12:00:09.816]',-0.185
'[12:00:09.820]',-0.19
'[12:00:09.824]',-0.22
'[12:00:09.828]',-0.205
'[12:00:09.832]',-0.23
'[12:00:09.836]',-0.22
'[12:00:09.840]',-0.245
'[12:00:09.844]',-0.235
'[12:00:09.848]',-0.255
'[12:00:09.852]',-0.255
'[12:00:09.856]',-0.255
'[12:00:09.860]',-0.255
'[12:00:09.864]',-0.245
'[12:00:09.868]',-0.255
'[12:00:09.872]',-0.31
'[12:00:09.876]',-0.42
'[12:00:09.880]',-0.49
'[12:00:09.884]',-0.53
'[12:00:09.888]',-0.53
'[12:00:09.892]',-0.465
'[12:00:09.896]',-0.225
'[12:00:09.900]',0.065
'[12:00:09.904]',0.405
'[12:00:09.908]',0.685
'[12:00:09.912]',0.755
'[12:00:09.916]',0.445
'[12:00:09.920]',-0.075
'[12:00:09.924]',-0.64
'[12:00:09.928]',-0.97
'[12:00:09.932]',-0.965
'[12:00:09.936]',-0.755
'[12:00:09.940]',-0.53
'[12:00:09.944]',-0.365
'[12:00:09.948]',-0.235
'[12:00:09.952]',-0.195
'[12:00:09.956]',-0.19
'[12:00:09.960]',-0.17
'[12:00:09.964]',-0.18
'[12:00:09.968]',-0.19
'[12:00:09.972]',-0.195
'[12:00:09.976]',-0.19
'[12:00:09.980]',-0.21
'[12:00:09.984]',-0.225
'[12:00:09.988]',-0.21
'[12:00:09.992]',-0.22
'[12:00:09.996]',-0.21
'[12:00:10.000]',-0.24
'[12:00:10.004]',-0.23
'[12:00:10.008]',-0.23
'[12:00:10.012]',-0.21
'[12:00:10.016]',-0.23
'[12:00:10.020]',-0.235
'[12:00:10.024]',-0.24
'[12:00:10.028]',-0.26
'[12:00:10.032]',-0.22
'[12:00:10.036]',-0.25
'[12:00:10.040]',-0.245
'[12:00:10.044]',-0.225
'[12:00:10.048]',-0.215
'[12:00:10.052]',-0.205
'[12:00:10.056]',-0.21
'[12:00:10.060]',-0.21
'[12:00:10.064]',-0.2
'[12:00:10.068]',-0.195
'[12:00:10.072]',-0.18
'[12:00:10.076]',-0.185
'[12:00:10.080]',-0.17
'[12:00:10.084]',-0.15
'[12:00:10.088]',-0.15
'[12:00:10.092]',-0.15
'[12:00:10.096]',-0.145
'[12:00:10.100]',-0.1
'[12:00:10.104]',-0.085
'[12:00:10.108]',-0.06
'[12:00:10.112]',-0.045
'[12:00:10.116]',-0.01
'[12:00:10.120]',0.03
'[12:00:10.124]',0.045
'[12:00:10.128]',0.07
'[12:00:10.132]',0.09
'[12:00:10.136]',0.11
'[12:00:10.140]',0.1
'[12:00:10.144]',0.105
'[12:00:10.148]',0.125
'[12:00:10.152]',0.135
'[12:00:10.156]',0.1
'[12:00:10.160]',0.095
'[12:00:10.164]',0.09
'[12:00:10.168]',0.075
'[12:00:10.172]',0.035
'[12:00:10.176]',0
'[12:00:10.180]',-0.01
'[12:00:10.184]',-0.07
'[12:00:10.188]',-0.075
'[12:00:10.192]',-0.095
'[12:00:10.196]',-0.11
'[12:00:10.200]',-0.14
'[12:00:10.204]',-0.16
'[12:00:10.208]',-0.165
'[12:00:10.212]',-0.18
'[12:00:10.216]',-0.205
'[12:00:10.220]',-0.195
'[12:00:10.224]',-0.17
'[12:00:10.228]',-0.2
'[12:00:10.232]',-0.215
'[12:00:10.236]',-0.205
'[12:00:10.240]',-0.225
'[12:00:10.244]',-0.24
'[12:00:10.248]',-0.26
'[12:00:10.252]',-0.29
'[12:00:10.256]',-0.28
'[12:00:10.260]',-0.26
'[12:00:10.264]',-0.265
'[12:00:10.268]',-0.285
'[12:00:10.272]',-0.285
'[12:00:10.276]',-0.265
'[12:00:10.280]',-0.295
'[12:00:10.284]',-0.29
'[12:00:10.288]',-0.29
'[12:00:10.292]',-0.27
'[12:00:10.296]',-0.235
'[12:00:10.300]',-0.21
'[12:00:10.304]',-0.21
'[12:00:10.308]',-0.195
'[12:00:10.312]',-0.19
'[12:00:10.316]',-0.225
'[12:00:10.320]',-0.195
'[12:00:10.324]',-0.2
'[12:00:10.328]',-0.2
'[12:00:10.332]',-0.22
'[12:00:10.336]',-0.235
'[12:00:10.340]',-0.21
'[12:00:10.344]',-0.22
'[12:00:10.348]',-0.22
'[12:00:10.352]',-0.205
'[12:00:10.356]',-0.235
'[12:00:10.360]',-0.225
'[12:00:10.364]',-0.225
'[12:00:10.368]',-0.24
'[12:00:10.372]',-0.23
'[12:00:10.376]',-0.23
'[12:00:10.380]',-0.24
'[12:00:10.384]',-0.225
'[12:00:10.388]',-0.23
'[12:00:10.392]',-0.25
'[12:00:10.396]',-0.255
'[12:00:10.400]',-0.24
'[12:00:10.404]',-0.26
'[12:00:10.408]',-0.27
'[12:00:10.412]',-0.265
'[12:00:10.416]',-0.265
'[12:00:10.420]',-0.27
'[12:00:10.424]',-0.27
'[12:00:10.428]',-0.3
'[12:00:10.432]',-0.295
'[12:00:10.436]',-0.28
'[12:00:10.440]',-0.3
'[12:00:10.444]',-0.315
'[12:00:10.448]',-0.295
'[12:00:10.452]',-0.315
'[12:00:10.456]',-0.315
'[12:00:10.460]',-0.28
'[12:00:10.464]',-0.215
'[12:00:10.468]',-0.21
'[12:00:10.472]',-0.21
'[12:00:10.476]',-0.205
'[12:00:10.480]',-0.19
'[12:00:10.484]',-0.195
'[12:00:10.488]',-0.18
'[12:00:10.492]',-0.175
'[12:00:10.496]',-0.185
'[12:00:10.500]',-0.2
'[12:00:10.504]',-0.205
'[12:00:10.508]',-0.225
'[12:00:10.512]',-0.23
'[12:00:10.516]',-0.215
'[12:00:10.520]',-0.235
'[12:00:10.524]',-0.26
'[12:00:10.528]',-0.265
'[12:00:10.532]',-0.26
'[12:00:10.536]',-0.26
'[12:00:10.540]',-0.25
'[12:00:10.544]',-0.27
'[12:00:10.548]',-0.26
'[12:00:10.552]',-0.27
'[12:00:10.556]',-0.27
'[12:00:10.560]',-0.265
'[12:00:10.564]',-0.265
'[12:00:10.568]',-0.27
'[12:00:10.572]',-0.295
'[12:00:10.576]',-0.34
'[12:00:10.580]',-0.41
'[12:00:10.584]',-0.445
'[12:00:10.588]',-0.46
'[12:00:10.592]',-0.415
'[12:00:10.596]',-0.32
'[12:00:10.600]',-0.08
'[12:00:10.604]',0.24
'[12:00:10.608]',0.575
'[12:00:10.612]',0.835
'[12:00:10.616]',0.84
'[12:00:10.620]',0.4
'[12:00:10.624]',-0.175
'[12:00:10.628]',-0.69
'[12:00:10.632]',-0.97
'[12:00:10.636]',-0.985
'[12:00:10.640]',-0.815
'[12:00:10.644]',-0.575
'[12:00:10.648]',-0.38
'[12:00:10.652]',-0.28
'[12:00:10.656]',-0.225
'[12:00:10.660]',-0.22
'[12:00:10.664]',-0.225
'[12:00:10.668]',-0.205
'[12:00:10.672]',-0.22
'[12:00:10.676]',-0.2
'[12:00:10.680]',-0.21
'[12:00:10.684]',-0.215
'[12:00:10.688]',-0.205
'[12:00:10.692]',-0.21
'[12:00:10.696]',-0.23
'[12:00:10.700]',-0.23
'[12:00:10.704]',-0.22
'[12:00:10.708]',-0.225
'[12:00:10.712]',-0.215
'[12:00:10.716]',-0.22
'[12:00:10.720]',-0.21
'[12:00:10.724]',-0.21
'[12:00:10.728]',-0.205
'[12:00:10.732]',-0.185
'[12:00:10.736]',-0.21
'[12:00:10.740]',-0.215
'[12:00:10.744]',-0.225
'[12:00:10.748]',-0.205
'[12:00:10.752]',-0.205
'[12:00:10.756]',-0.215
'[12:00:10.760]',-0.22
'[12:00:10.764]',-0.19
'[12:00:10.768]',-0.19
'[12:00:10.772]',-0.175
'[12:00:10.776]',-0.155
'[12:00:10.780]',-0.14
'[12:00:10.784]',-0.145
'[12:00:10.788]',-0.14
'[12:00:10.792]',-0.105
'[12:00:10.796]',-0.07
'[12:00:10.800]',-0.06
'[12:00:10.804]',-0.055
'[12:00:10.808]',-0.045
'[12:00:10.812]',-0.015
'[12:00:10.816]',0
'[12:00:10.820]',0.005
'[12:00:10.824]',0.03
'[12:00:10.828]',0.02
'[12:00:10.832]',0.04
'[12:00:10.836]',0.06
'[12:00:10.840]',0.065
'[12:00:10.844]',0.075
'[12:00:10.848]',0.07
'[12:00:10.852]',0.115
'[12:00:10.856]',0.11
'[12:00:10.860]',0.075
'[12:00:10.864]',0.08
'[12:00:10.868]',0.07
'[12:00:10.872]',0.055
'[12:00:10.876]',0.02
'[12:00:10.880]',0.01
'[12:00:10.884]',-0.02
'[12:00:10.888]',-0.06
'[12:00:10.892]',-0.095
'[12:00:10.896]',-0.115
'[12:00:10.900]',-0.105
'[12:00:10.904]',-0.125
'[12:00:10.908]',-0.16
'[12:00:10.912]',-0.16
'[12:00:10.916]',-0.175
'[12:00:10.920]',-0.195
'[12:00:10.924]',-0.22
'[12:00:10.928]',-0.23
'[12:00:10.932]',-0.23
'[12:00:10.936]',-0.225
'[12:00:10.940]',-0.255
'[12:00:10.944]',-0.26
'[12:00:10.948]',-0.265
'[12:00:10.952]',-0.265
'[12:00:10.956]',-0.28
'[12:00:10.960]',-0.265
'[12:00:10.964]',-0.26
'[12:00:10.968]',-0.27
'[12:00:10.972]',-0.26
'[12:00:10.976]',-0.26
'[12:00:10.980]',-0.265
'[12:00:10.984]',-0.28
'[12:00:10.988]',-0.28
'[12:00:10.992]',-0.265
'[12:00:10.996]',-0.27

