Time,ECG
2025-05-22T16:33:14.950,-0.09
2025-05-22T16:33:14.950,-0.06
2025-05-22T16:33:14.950,-0.05
2025-05-22T16:33:14.950,-0.07
2025-05-22T16:33:14.950,-0.11
2025-05-22T16:33:14.950,-0.13
2025-05-22T16:33:14.950,-0.09
2025-05-22T16:33:14.950,-0.07
2025-05-22T16:33:14.950,-0.06
2025-05-22T16:33:14.950,-0.09
2025-05-22T16:33:14.950,-0.12
2025-05-22T16:33:14.950,-0.13
2025-05-22T16:33:14.950,-0.15
2025-05-22T16:33:14.950,-0.12
2025-05-22T16:33:14.950,-0.08
2025-05-22T16:33:14.950,-0.08
2025-05-22T16:33:14.950,-0.12
2025-05-22T16:33:14.950,-0.12
2025-05-22T16:33:14.950,-0.12
2025-05-22T16:33:14.950,-0.13
2025-05-22T16:33:14.950,-0.11
2025-05-22T16:33:14.950,-0.11
2025-05-22T16:33:14.950,-0.14
2025-05-22T16:33:14.950,-0.14
2025-05-22T16:33:14.950,-0.11
2025-05-22T16:33:14.950,-0.10
2025-05-22T16:33:14.950,-0.12
2025-05-22T16:33:14.950,-0.12
2025-05-22T16:33:14.950,-0.13
2025-05-22T16:33:14.953,-0.14
2025-05-22T16:33:14.957,-0.13
2025-05-22T16:33:14.961,-0.15
2025-05-22T16:33:14.965,-0.13
2025-05-22T16:33:14.968,-0.10
2025-05-22T16:33:14.972,-0.11
2025-05-22T16:33:14.976,-0.12
2025-05-22T16:33:14.980,-0.12
2025-05-22T16:33:14.983,-0.11
2025-05-22T16:33:14.987,-0.09
2025-05-22T16:33:14.991,-0.05
2025-05-22T16:33:14.995,0.02
2025-05-22T16:33:14.998,0.05
2025-05-22T16:33:15.002,0.10
2025-05-22T16:33:15.006,0.12
2025-05-22T16:33:15.010,0.13
2025-05-22T16:33:15.013,0.18
2025-05-22T16:33:15.017,0.20
2025-05-22T16:33:15.021,0.15
2025-05-22T16:33:15.025,0.09
2025-05-22T16:33:15.028,0.03
2025-05-22T16:33:15.032,-0.01
2025-05-22T16:33:15.036,-0.03
2025-05-22T16:33:15.040,-0.05
2025-05-22T16:33:15.043,-0.11
2025-05-22T16:33:15.047,-0.15
2025-05-22T16:33:15.051,-0.18
2025-05-22T16:33:15.055,-0.22
2025-05-22T16:33:15.058,-0.24
2025-05-22T16:33:15.062,-0.26
2025-05-22T16:33:15.066,-0.26
2025-05-22T16:33:15.070,-0.24
2025-05-22T16:33:15.073,-0.27
2025-05-22T16:33:15.077,-0.29
2025-05-22T16:33:15.081,-0.29
2025-05-22T16:33:15.085,-0.27
2025-05-22T16:33:15.088,-0.26
2025-05-22T16:33:15.092,-0.25
2025-05-22T16:33:15.096,-0.23
2025-05-22T16:33:15.100,-0.23
2025-05-22T16:33:15.103,-0.26
2025-05-22T16:33:15.107,-0.24
2025-05-22T16:33:15.111,-0.23
2025-05-22T16:33:15.115,-0.26
2025-05-22T16:33:15.118,-0.29
2025-05-22T16:33:15.122,-0.13
2025-05-22T16:33:15.126,0.23
2025-05-22T16:33:15.130,0.62
2025-05-22T16:33:15.133,1.03
2025-05-22T16:33:15.137,1.54
2025-05-22T16:33:15.141,2.06
2025-05-22T16:33:15.145,2.71
2025-05-22T16:33:15.148,3.21
2025-05-22T16:33:15.152,2.87
2025-05-22T16:33:15.156,1.49
2025-05-22T16:33:15.160,-0.26
2025-05-22T16:33:15.163,-1.24
2025-05-22T16:33:15.167,-1.55
2025-05-22T16:33:15.171,-1.50
2025-05-22T16:33:15.175,-1.38
2025-05-22T16:33:15.178,-1.30
2025-05-22T16:33:15.182,-1.13
2025-05-22T16:33:15.186,-0.88
2025-05-22T16:33:15.190,-0.57
2025-05-22T16:33:15.193,-0.30
2025-05-22T16:33:15.197,-0.15
2025-05-22T16:33:15.201,-0.12
2025-05-22T16:33:15.205,-0.11
2025-05-22T16:33:15.208,-0.10
2025-05-22T16:33:15.212,-0.10
2025-05-22T16:33:15.216,-0.09
2025-05-22T16:33:15.220,-0.06
2025-05-22T16:33:15.223,-0.04
2025-05-22T16:33:15.227,-0.03
2025-05-22T16:33:15.231,-0.03
2025-05-22T16:33:15.235,-0.02
2025-05-22T16:33:15.238,-0.02
2025-05-22T16:33:15.242,0.00
2025-05-22T16:33:15.246,0.02
2025-05-22T16:33:15.250,0.03
2025-05-22T16:33:15.253,0.02
2025-05-22T16:33:15.257,0.02
2025-05-22T16:33:15.261,0.03
2025-05-22T16:33:15.265,0.05
2025-05-22T16:33:15.268,0.08
2025-05-22T16:33:15.272,0.10
2025-05-22T16:33:15.276,0.10
2025-05-22T16:33:15.280,0.11
2025-05-22T16:33:15.283,0.12
2025-05-22T16:33:15.287,0.16
2025-05-22T16:33:15.291,0.18
2025-05-22T16:33:15.295,0.20
2025-05-22T16:33:15.298,0.23
2025-05-22T16:33:15.302,0.23
2025-05-22T16:33:15.306,0.22
2025-05-22T16:33:15.310,0.24
2025-05-22T16:33:15.313,0.27
2025-05-22T16:33:15.317,0.30
2025-05-22T16:33:15.321,0.32
2025-05-22T16:33:15.325,0.33
2025-05-22T16:33:15.328,0.34
2025-05-22T16:33:15.332,0.37
2025-05-22T16:33:15.336,0.40
2025-05-22T16:33:15.340,0.42
2025-05-22T16:33:15.343,0.44
2025-05-22T16:33:15.347,0.47
2025-05-22T16:33:15.351,0.52
2025-05-22T16:33:15.355,0.58
2025-05-22T16:33:15.358,0.63
2025-05-22T16:33:15.362,0.65
2025-05-22T16:33:15.366,0.67
2025-05-22T16:33:15.370,0.71
2025-05-22T16:33:15.373,0.77
2025-05-22T16:33:15.377,0.79
2025-05-22T16:33:15.381,0.81
2025-05-22T16:33:15.385,0.83
2025-05-22T16:33:15.388,0.83
2025-05-22T16:33:15.392,0.83
2025-05-22T16:33:15.396,0.83
2025-05-22T16:33:15.400,0.80
2025-05-22T16:33:15.403,0.77
2025-05-22T16:33:15.407,0.74
2025-05-22T16:33:15.411,0.67
2025-05-22T16:33:15.415,0.62
2025-05-22T16:33:15.418,0.56
2025-05-22T16:33:15.422,0.48
2025-05-22T16:33:15.426,0.42
2025-05-22T16:33:15.430,0.36
2025-05-22T16:33:15.433,0.28
2025-05-22T16:33:15.437,0.19
2025-05-22T16:33:15.441,0.11
2025-05-22T16:33:15.445,0.05
2025-05-22T16:33:15.448,-0.01
2025-05-22T16:33:15.452,-0.07
2025-05-22T16:33:15.456,-0.14
2025-05-22T16:33:15.460,-0.20
2025-05-22T16:33:15.463,-0.24
2025-05-22T16:33:15.467,-0.27
2025-05-22T16:33:15.471,-0.29
2025-05-22T16:33:15.475,-0.32
2025-05-22T16:33:15.478,-0.35
2025-05-22T16:33:15.482,-0.37
2025-05-22T16:33:15.486,-0.39
2025-05-22T16:33:15.490,-0.41
2025-05-22T16:33:15.493,-0.41
2025-05-22T16:33:15.497,-0.41
2025-05-22T16:33:15.501,-0.41
2025-05-22T16:33:15.505,-0.41
2025-05-22T16:33:15.508,-0.41
2025-05-22T16:33:15.512,-0.39
2025-05-22T16:33:15.516,-0.39
2025-05-22T16:33:15.520,-0.39
2025-05-22T16:33:15.523,-0.37
2025-05-22T16:33:15.527,-0.36
2025-05-22T16:33:15.531,-0.36
2025-05-22T16:33:15.535,-0.35
2025-05-22T16:33:15.538,-0.33
2025-05-22T16:33:15.538,-0.35
2025-05-22T16:33:15.542,-0.35
2025-05-22T16:33:15.546,-0.34
2025-05-22T16:33:15.549,-0.33
2025-05-22T16:33:15.553,-0.33
2025-05-22T16:33:15.557,-0.32
2025-05-22T16:33:15.561,-0.30
2025-05-22T16:33:15.564,-0.29
2025-05-22T16:33:15.568,-0.28
2025-05-22T16:33:15.572,-0.28
2025-05-22T16:33:15.576,-0.28
2025-05-22T16:33:15.579,-0.28
2025-05-22T16:33:15.583,-0.27
2025-05-22T16:33:15.587,-0.27
2025-05-22T16:33:15.591,-0.26
2025-05-22T16:33:15.594,-0.27
2025-05-22T16:33:15.598,-0.27
2025-05-22T16:33:15.602,-0.27
2025-05-22T16:33:15.606,-0.28
2025-05-22T16:33:15.609,-0.28
2025-05-22T16:33:15.613,-0.30
2025-05-22T16:33:15.617,-0.31
2025-05-22T16:33:15.621,-0.32
2025-05-22T16:33:15.624,-0.31
2025-05-22T16:33:15.628,-0.31
2025-05-22T16:33:15.632,-0.32
2025-05-22T16:33:15.636,-0.33
2025-05-22T16:33:15.639,-0.34
2025-05-22T16:33:15.643,-0.35
2025-05-22T16:33:15.647,-0.34
2025-05-22T16:33:15.651,-0.34
2025-05-22T16:33:15.654,-0.35
2025-05-22T16:33:15.658,-0.35
2025-05-22T16:33:15.662,-0.36
2025-05-22T16:33:15.666,-0.37
2025-05-22T16:33:15.669,-0.38
2025-05-22T16:33:15.673,-0.39
2025-05-22T16:33:15.677,-0.38
2025-05-22T16:33:15.681,-0.39
2025-05-22T16:33:15.684,-0.41
2025-05-22T16:33:15.688,-0.41
2025-05-22T16:33:15.692,-0.40
2025-05-22T16:33:15.696,-0.40
2025-05-22T16:33:15.699,-0.42
2025-05-22T16:33:15.703,-0.43
2025-05-22T16:33:15.707,-0.42
2025-05-22T16:33:15.711,-0.41
2025-05-22T16:33:15.714,-0.42
2025-05-22T16:33:15.718,-0.42
2025-05-22T16:33:15.722,-0.42
2025-05-22T16:33:15.726,-0.41
2025-05-22T16:33:15.729,-0.41
2025-05-22T16:33:15.733,-0.40
2025-05-22T16:33:15.737,-0.37
2025-05-22T16:33:15.741,-0.32
2025-05-22T16:33:15.744,-0.27
2025-05-22T16:33:15.748,-0.24
2025-05-22T16:33:15.752,-0.23
2025-05-22T16:33:15.756,-0.22
2025-05-22T16:33:15.759,-0.19
2025-05-22T16:33:15.763,-0.15
2025-05-22T16:33:15.767,-0.10
2025-05-22T16:33:15.771,-0.06
2025-05-22T16:33:15.774,-0.09
2025-05-22T16:33:15.778,-0.15
2025-05-22T16:33:15.782,-0.19
2025-05-22T16:33:15.785,-0.24
2025-05-22T16:33:15.789,-0.28
2025-05-22T16:33:15.793,-0.34
2025-05-22T16:33:15.797,-0.39
2025-05-22T16:33:15.800,-0.41
2025-05-22T16:33:15.804,-0.45
2025-05-22T16:33:15.808,-0.50
2025-05-22T16:33:15.812,-0.57
2025-05-22T16:33:15.816,-0.59
2025-05-22T16:33:15.819,-0.61
2025-05-22T16:33:15.823,-0.62
2025-05-22T16:33:15.827,-0.62
2025-05-22T16:33:15.830,-0.60
2025-05-22T16:33:15.834,-0.60
2025-05-22T16:33:15.838,-0.61
2025-05-22T16:33:15.842,-0.62
2025-05-22T16:33:15.845,-0.61
2025-05-22T16:33:15.849,-0.60
2025-05-22T16:33:15.853,-0.59
2025-05-22T16:33:15.857,-0.59
2025-05-22T16:33:15.860,-0.59
2025-05-22T16:33:15.864,-0.60
2025-05-22T16:33:15.868,-0.59
2025-05-22T16:33:15.872,-0.59
2025-05-22T16:33:15.875,-0.60
2025-05-22T16:33:15.879,-0.63
2025-05-22T16:33:15.883,-0.60
2025-05-22T16:33:15.887,-0.37
2025-05-22T16:33:15.891,0.05
2025-05-22T16:33:15.894,0.49
2025-05-22T16:33:15.898,0.97
2025-05-22T16:33:15.902,1.50
2025-05-22T16:33:15.906,2.09
2025-05-22T16:33:15.909,2.79
2025-05-22T16:33:15.913,3.13
2025-05-22T16:33:15.917,2.56
2025-05-22T16:33:15.920,0.90
2025-05-22T16:33:15.924,-0.82
2025-05-22T16:33:15.928,-1.65
2025-05-22T16:33:15.932,-1.88
2025-05-22T16:33:15.935,-1.81
2025-05-22T16:33:15.939,-1.73
2025-05-22T16:33:15.943,-1.59
2025-05-22T16:33:15.947,-1.35
2025-05-22T16:33:15.950,-1.02
2025-05-22T16:33:15.954,-0.69
2025-05-22T16:33:15.958,-0.53
2025-05-22T16:33:15.962,-0.50
2025-05-22T16:33:15.965,-0.51
2025-05-22T16:33:15.969,-0.48
2025-05-22T16:33:15.973,-0.46
2025-05-22T16:33:15.977,-0.44
2025-05-22T16:33:15.980,-0.42
2025-05-22T16:33:15.984,-0.40
2025-05-22T16:33:15.988,-0.39
2025-05-22T16:33:15.992,-0.38
2025-05-22T16:33:15.995,-0.36
2025-05-22T16:33:15.999,-0.35
2025-05-22T16:33:16.003,-0.35
2025-05-22T16:33:16.007,-0.34
2025-05-22T16:33:16.010,-0.31
2025-05-22T16:33:16.014,-0.30
2025-05-22T16:33:16.018,-0.31
2025-05-22T16:33:16.022,-0.31
2025-05-22T16:33:16.025,-0.30
2025-05-22T16:33:16.029,-0.29
2025-05-22T16:33:16.033,-0.29
2025-05-22T16:33:16.037,-0.25
2025-05-22T16:33:16.040,-0.23
2025-05-22T16:33:16.044,-0.23
2025-05-22T16:33:16.048,-0.23
2025-05-22T16:33:16.052,-0.21
2025-05-22T16:33:16.055,-0.18
2025-05-22T16:33:16.059,-0.17
2025-05-22T16:33:16.063,-0.16
2025-05-22T16:33:16.067,-0.13
2025-05-22T16:33:16.070,-0.09
2025-05-22T16:33:16.074,-0.06
2025-05-22T16:33:16.078,-0.02
2025-05-22T16:33:16.082,0.02
2025-05-22T16:33:16.085,0.05
2025-05-22T16:33:16.089,0.07
2025-05-22T16:33:16.093,0.09
2025-05-22T16:33:16.097,0.12
2025-05-22T16:33:16.100,0.16
2025-05-22T16:33:16.104,0.18
2025-05-22T16:33:16.108,0.21
2025-05-22T16:33:16.112,0.24
2025-05-22T16:33:16.115,0.27
2025-05-22T16:33:16.119,0.30
2025-05-22T16:33:16.123,0.34
2025-05-22T16:33:16.127,0.38
2025-05-22T16:33:16.130,0.43
2025-05-22T16:33:16.134,0.48
2025-05-22T16:33:16.138,0.51
2025-05-22T16:33:16.142,0.52
2025-05-22T16:33:16.146,0.54
2025-05-22T16:33:16.149,0.56
2025-05-22T16:33:16.153,0.57
2025-05-22T16:33:16.157,0.57
2025-05-22T16:33:16.160,0.56
2025-05-22T16:33:16.164,0.54
2025-05-22T16:33:16.168,0.51
2025-05-22T16:33:16.172,0.49
2025-05-22T16:33:16.175,0.45
2025-05-22T16:33:16.179,0.41
2025-05-22T16:33:16.183,0.34
2025-05-22T16:33:16.187,0.27
2025-05-22T16:33:16.190,0.21
2025-05-22T16:33:16.194,0.13
2025-05-22T16:33:16.198,0.04
2025-05-22T16:33:16.202,-0.04
2025-05-22T16:33:16.205,-0.11
2025-05-22T16:33:16.209,-0.16
2025-05-22T16:33:16.213,-0.22
2025-05-22T16:33:16.217,-0.28
2025-05-22T16:33:16.220,-0.34
2025-05-22T16:33:16.224,-0.38
2025-05-22T16:33:16.228,-0.43
2025-05-22T16:33:16.232,-0.46
2025-05-22T16:33:16.235,-0.49
2025-05-22T16:33:16.239,-0.52
2025-05-22T16:33:16.243,-0.53
2025-05-22T16:33:16.247,-0.54
2025-05-22T16:33:16.250,-0.54
2025-05-22T16:33:16.254,-0.54
2025-05-22T16:33:16.258,-0.54
2025-05-22T16:33:16.262,-0.55
2025-05-22T16:33:16.265,-0.55
2025-05-22T16:33:16.269,-0.54
2025-05-22T16:33:16.273,-0.52
2025-05-22T16:33:16.277,-0.50
2025-05-22T16:33:16.280,-0.49
2025-05-22T16:33:16.284,-0.49
2025-05-22T16:33:16.288,-0.49
2025-05-22T16:33:16.292,-0.48
2025-05-22T16:33:16.295,-0.48
2025-05-22T16:33:16.299,-0.47
2025-05-22T16:33:16.303,-0.46
2025-05-22T16:33:16.307,-0.44
2025-05-22T16:33:16.310,-0.44
2025-05-22T16:33:16.314,-0.44
2025-05-22T16:33:16.318,-0.42
2025-05-22T16:33:16.322,-0.40
2025-05-22T16:33:16.325,-0.39
2025-05-22T16:33:16.329,-0.39
2025-05-22T16:33:16.333,-0.38
2025-05-22T16:33:16.337,-0.37
2025-05-22T16:33:16.340,-0.37
2025-05-22T16:33:16.344,-0.37
2025-05-22T16:33:16.348,-0.36
2025-05-22T16:33:16.352,-0.35
2025-05-22T16:33:16.355,-0.34
2025-05-22T16:33:16.359,-0.34
2025-05-22T16:33:16.363,-0.36
2025-05-22T16:33:16.367,-0.37
2025-05-22T16:33:16.370,-0.36
2025-05-22T16:33:16.374,-0.36
2025-05-22T16:33:16.378,-0.36
2025-05-22T16:33:16.382,-0.37
2025-05-22T16:33:16.385,-0.36
2025-05-22T16:33:16.389,-0.36
2025-05-22T16:33:16.393,-0.36
2025-05-22T16:33:16.397,-0.36
2025-05-22T16:33:16.400,-0.38
2025-05-22T16:33:16.404,-0.39
2025-05-22T16:33:16.408,-0.39
2025-05-22T16:33:16.412,-0.38
2025-05-22T16:33:16.415,-0.39
2025-05-22T16:33:16.419,-0.40
2025-05-22T16:33:16.423,-0.40
2025-05-22T16:33:16.427,-0.40
2025-05-22T16:33:16.430,-0.41
2025-05-22T16:33:16.434,-0.41
2025-05-22T16:33:16.438,-0.41
2025-05-22T16:33:16.442,-0.41
2025-05-22T16:33:16.445,-0.41
2025-05-22T16:33:16.449,-0.41
2025-05-22T16:33:16.453,-0.39
2025-05-22T16:33:16.457,-0.37
2025-05-22T16:33:16.460,-0.37
2025-05-22T16:33:16.464,-0.35
2025-05-22T16:33:16.468,-0.30
2025-05-22T16:33:16.472,-0.26
2025-05-22T16:33:16.475,-0.21
2025-05-22T16:33:16.479,-0.19
2025-05-22T16:33:16.483,-0.18
2025-05-22T16:33:16.487,-0.16
2025-05-22T16:33:16.490,-0.11
2025-05-22T16:33:16.494,-0.05
2025-05-22T16:33:16.498,0.01
2025-05-22T16:33:16.502,0.03
2025-05-22T16:33:16.505,-0.02
2025-05-22T16:33:16.509,-0.07
2025-05-22T16:33:16.513,-0.11
2025-05-22T16:33:16.517,-0.15
2025-05-22T16:33:16.520,-0.21
2025-05-22T16:33:16.524,-0.28
2025-05-22T16:33:16.528,-0.32
2025-05-22T16:33:16.532,-0.35
2025-05-22T16:33:16.535,-0.39
2025-05-22T16:33:16.539,-0.46
2025-05-22T16:33:16.543,-0.51
2025-05-22T16:33:16.547,-0.53
2025-05-22T16:33:16.550,-0.55
2025-05-22T16:33:16.554,-0.54
2025-05-22T16:33:16.558,-0.54
2025-05-22T16:33:16.562,-0.55
2025-05-22T16:33:16.565,-0.54
2025-05-22T16:33:16.569,-0.54
2025-05-22T16:33:16.573,-0.53
2025-05-22T16:33:16.577,-0.52
2025-05-22T16:33:16.580,-0.52
2025-05-22T16:33:16.584,-0.51
2025-05-22T16:33:16.588,-0.51
2025-05-22T16:33:16.592,-0.50
2025-05-22T16:33:16.595,-0.49
2025-05-22T16:33:16.599,-0.49
2025-05-22T16:33:16.603,-0.50
2025-05-22T16:33:16.607,-0.52
2025-05-22T16:33:16.610,-0.53
2025-05-22T16:33:16.614,-0.54
2025-05-22T16:33:16.618,-0.44
2025-05-22T16:33:16.622,-0.14
2025-05-22T16:33:16.625,0.30
2025-05-22T16:33:16.629,0.75
2025-05-22T16:33:16.633,1.27
2025-05-22T16:33:16.637,1.82
2025-05-22T16:33:16.640,2.43
2025-05-22T16:33:16.644,3.03
2025-05-22T16:33:16.648,3.11
2025-05-22T16:33:16.652,2.24
2025-05-22T16:33:16.655,0.44
2025-05-22T16:33:16.659,-1.00
2025-05-22T16:33:16.663,-1.60
2025-05-22T16:33:16.667,-1.69
2025-05-22T16:33:16.670,-1.61
2025-05-22T16:33:16.674,-1.52
2025-05-22T16:33:16.678,-1.33
2025-05-22T16:33:16.682,-1.05
2025-05-22T16:33:16.685,-0.71
2025-05-22T16:33:16.689,-0.45
2025-05-22T16:33:16.693,-0.33
2025-05-22T16:33:16.697,-0.32
2025-05-22T16:33:16.700,-0.33
2025-05-22T16:33:16.704,-0.32
2025-05-22T16:33:16.708,-0.29
2025-05-22T16:33:16.712,-0.26
2025-05-22T16:33:16.715,-0.24
2025-05-22T16:33:16.719,-0.23
2025-05-22T16:33:16.723,-0.22
2025-05-22T16:33:16.727,-0.21
2025-05-22T16:33:16.730,-0.20
2025-05-22T16:33:16.734,-0.18
2025-05-22T16:33:16.738,-0.17
2025-05-22T16:33:16.742,-0.16
2025-05-22T16:33:16.745,-0.15
2025-05-22T16:33:16.749,-0.14
2025-05-22T16:33:16.753,-0.13
2025-05-22T16:33:16.757,-0.10
2025-05-22T16:33:16.760,-0.09
2025-05-22T16:33:16.764,-0.08
2025-05-22T16:33:16.768,-0.07
2025-05-22T16:33:16.772,-0.05
2025-05-22T16:33:16.775,-0.03
2025-05-22T16:33:16.779,-0.01
2025-05-22T16:33:16.783,-0.00
2025-05-22T16:33:16.787,0.00
2025-05-22T16:33:16.790,0.02
2025-05-22T16:33:16.794,0.06
2025-05-22T16:33:16.798,0.08
2025-05-22T16:33:16.802,0.10
2025-05-22T16:33:16.805,0.11
2025-05-22T16:33:16.809,0.13
2025-05-22T16:33:16.813,0.16
2025-05-22T16:33:16.817,0.19
2025-05-22T16:33:16.820,0.21
2025-05-22T16:33:16.824,0.22
2025-05-22T16:33:16.828,0.24
2025-05-22T16:33:16.832,0.28
2025-05-22T16:33:16.835,0.33
2025-05-22T16:33:16.839,0.38
2025-05-22T16:33:16.843,0.41
2025-05-22T16:33:16.847,0.46
2025-05-22T16:33:16.850,0.52
2025-05-22T16:33:16.854,0.58
2025-05-22T16:33:16.858,0.63
2025-05-22T16:33:16.862,0.65
2025-05-22T16:33:16.865,0.69
2025-05-22T16:33:16.869,0.71
2025-05-22T16:33:16.873,0.73
2025-05-22T16:33:16.877,0.75
2025-05-22T16:33:16.880,0.74
2025-05-22T16:33:16.884,0.74
2025-05-22T16:33:16.888,0.75
2025-05-22T16:33:16.892,0.74
2025-05-22T16:33:16.895,0.71
2025-05-22T16:33:16.899,0.69
2025-05-22T16:33:16.903,0.66
2025-05-22T16:33:16.907,0.61
2025-05-22T16:33:16.910,0.57
2025-05-22T16:33:16.914,0.52
2025-05-22T16:33:16.918,0.45
2025-05-22T16:33:16.922,0.37
2025-05-22T16:33:16.925,0.30
2025-05-22T16:33:16.929,0.22
2025-05-22T16:33:16.933,0.15
2025-05-22T16:33:16.937,0.07
2025-05-22T16:33:16.940,0.00
2025-05-22T16:33:16.944,-0.08
2025-05-22T16:33:16.948,-0.14
2025-05-22T16:33:16.952,-0.18
2025-05-22T16:33:16.955,-0.24
2025-05-22T16:33:16.959,-0.29
2025-05-22T16:33:16.963,-0.31
2025-05-22T16:33:16.967,-0.33
2025-05-22T16:33:16.970,-0.36
2025-05-22T16:33:16.974,-0.37
2025-05-22T16:33:16.978,-0.38
2025-05-22T16:33:16.982,-0.40
2025-05-22T16:33:16.985,-0.41
2025-05-22T16:33:16.989,-0.40
2025-05-22T16:33:16.993,-0.40
2025-05-22T16:33:16.997,-0.41
2025-05-22T16:33:17.000,-0.40
2025-05-22T16:33:17.004,-0.40
2025-05-22T16:33:17.008,-0.39
2025-05-22T16:33:17.012,-0.38
2025-05-22T16:33:17.015,-0.37
2025-05-22T16:33:17.019,-0.35
2025-05-22T16:33:17.023,-0.35
2025-05-22T16:33:17.027,-0.34
2025-05-22T16:33:17.030,-0.33
2025-05-22T16:33:17.034,-0.33
2025-05-22T16:33:17.038,-0.32
2025-05-22T16:33:17.042,-0.31
2025-05-22T16:33:17.045,-0.31
2025-05-22T16:33:17.049,-0.30
2025-05-22T16:33:17.053,-0.28
2025-05-22T16:33:17.057,-0.28
2025-05-22T16:33:17.060,-0.28
2025-05-22T16:33:17.064,-0.29
2025-05-22T16:33:17.068,-0.28
2025-05-22T16:33:17.072,-0.27
2025-05-22T16:33:17.075,-0.26
2025-05-22T16:33:17.079,-0.27
2025-05-22T16:33:17.083,-0.28
2025-05-22T16:33:17.087,-0.27
2025-05-22T16:33:17.090,-0.26
2025-05-22T16:33:17.094,-0.27
2025-05-22T16:33:17.098,-0.27
2025-05-22T16:33:17.102,-0.27
2025-05-22T16:33:17.105,-0.27
2025-05-22T16:33:17.109,-0.27
2025-05-22T16:33:17.113,-0.27
2025-05-22T16:33:17.117,-0.26
2025-05-22T16:33:17.120,-0.26
2025-05-22T16:33:17.124,-0.26
2025-05-22T16:33:17.128,-0.27
2025-05-22T16:33:17.132,-0.29
2025-05-22T16:33:17.135,-0.30
2025-05-22T16:33:17.139,-0.31
2025-05-22T16:33:17.143,-0.30
2025-05-22T16:33:17.147,-0.30
2025-05-22T16:33:17.150,-0.29
2025-05-22T16:33:17.154,-0.28
2025-05-22T16:33:17.158,-0.27
2025-05-22T16:33:17.162,-0.24
2025-05-22T16:33:17.165,-0.20
2025-05-22T16:33:17.169,-0.16
2025-05-22T16:33:17.173,-0.12
2025-05-22T16:33:17.177,-0.11
2025-05-22T16:33:17.180,-0.11
2025-05-22T16:33:17.184,-0.10
2025-05-22T16:33:17.188,-0.04
2025-05-22T16:33:17.192,-0.01
2025-05-22T16:33:17.195,0.03
2025-05-22T16:33:17.199,0.06
2025-05-22T16:33:17.203,-0.01
2025-05-22T16:33:17.207,-0.06
2025-05-22T16:33:17.210,-0.08
2025-05-22T16:33:17.214,-0.11
2025-05-22T16:33:17.218,-0.17
2025-05-22T16:33:17.222,-0.24
2025-05-22T16:33:17.225,-0.28
2025-05-22T16:33:17.229,-0.32
2025-05-22T16:33:17.233,-0.38
2025-05-22T16:33:17.237,-0.44
2025-05-22T16:33:17.240,-0.48
2025-05-22T16:33:17.244,-0.49
2025-05-22T16:33:17.248,-0.50
2025-05-22T16:33:17.252,-0.52
2025-05-22T16:33:17.255,-0.53
2025-05-22T16:33:17.259,-0.52
2025-05-22T16:33:17.263,-0.50
2025-05-22T16:33:17.267,-0.49
2025-05-22T16:33:17.270,-0.49
2025-05-22T16:33:17.274,-0.49
2025-05-22T16:33:17.278,-0.49
2025-05-22T16:33:17.282,-0.50
2025-05-22T16:33:17.285,-0.49
2025-05-22T16:33:17.289,-0.47
2025-05-22T16:33:17.293,-0.46
2025-05-22T16:33:17.297,-0.46
2025-05-22T16:33:17.300,-0.48
2025-05-22T16:33:17.304,-0.49
2025-05-22T16:33:17.308,-0.48
2025-05-22T16:33:17.312,-0.51
2025-05-22T16:33:17.315,-0.47
2025-05-22T16:33:17.319,-0.19
2025-05-22T16:33:17.323,0.25
2025-05-22T16:33:17.327,0.69
2025-05-22T16:33:17.330,1.17
2025-05-22T16:33:17.334,1.71
2025-05-22T16:33:17.338,2.27
2025-05-22T16:33:17.342,2.83
2025-05-22T16:33:17.345,2.94
2025-05-22T16:33:17.349,2.21
2025-05-22T16:33:17.353,0.52
2025-05-22T16:33:17.357,-1.00
2025-05-22T16:33:17.360,-1.63
2025-05-22T16:33:17.364,-1.75
2025-05-22T16:33:17.368,-1.62
2025-05-22T16:33:17.372,-1.50
2025-05-22T16:33:17.375,-1.35
2025-05-22T16:33:17.379,-1.12
2025-05-22T16:33:17.383,-0.78
2025-05-22T16:33:17.387,-0.49
2025-05-22T16:33:17.390,-0.34
2025-05-22T16:33:17.394,-0.30
2025-05-22T16:33:17.398,-0.30
2025-05-22T16:33:17.402,-0.30
2025-05-22T16:33:17.405,-0.29
2025-05-22T16:33:17.409,-0.28
2025-05-22T16:33:17.413,-0.27
2025-05-22T16:33:17.417,-0.25
2025-05-22T16:33:17.420,-0.23
2025-05-22T16:33:17.424,-0.21
2025-05-22T16:33:17.428,-0.19
2025-05-22T16:33:17.432,-0.17
2025-05-22T16:33:17.435,-0.14
2025-05-22T16:33:17.439,-0.12
2025-05-22T16:33:17.443,-0.12
2025-05-22T16:33:17.447,-0.14
2025-05-22T16:33:17.450,-0.14
2025-05-22T16:33:17.454,-0.12
2025-05-22T16:33:17.458,-0.09
2025-05-22T16:33:17.462,-0.09
2025-05-22T16:33:17.465,-0.07
2025-05-22T16:33:17.469,-0.05
2025-05-22T16:33:17.473,-0.00
2025-05-22T16:33:17.477,0.02
2025-05-22T16:33:17.480,0.02
2025-05-22T16:33:17.484,0.01
2025-05-22T16:33:17.488,0.01
2025-05-22T16:33:17.492,0.02
2025-05-22T16:33:17.495,0.06
2025-05-22T16:33:17.499,0.10
2025-05-22T16:33:17.503,0.12
2025-05-22T16:33:17.507,0.15
2025-05-22T16:33:17.510,0.18
2025-05-22T16:33:17.514,0.20
2025-05-22T16:33:17.518,0.20
2025-05-22T16:33:17.522,0.22
2025-05-22T16:33:17.525,0.25
2025-05-22T16:33:17.529,0.27
2025-05-22T16:33:17.533,0.32
2025-05-22T16:33:17.537,0.36
2025-05-22T16:33:17.540,0.38
2025-05-22T16:33:17.544,0.42
2025-05-22T16:33:17.548,0.47
2025-05-22T16:33:17.552,0.53
2025-05-22T16:33:17.555,0.57
2025-05-22T16:33:17.559,0.58
2025-05-22T16:33:17.563,0.61
2025-05-22T16:33:17.567,0.67
2025-05-22T16:33:17.570,0.70
2025-05-22T16:33:17.574,0.72
2025-05-22T16:33:17.578,0.75
2025-05-22T16:33:17.582,0.77
2025-05-22T16:33:17.585,0.75
2025-05-22T16:33:17.589,0.74
2025-05-22T16:33:17.593,0.72
2025-05-22T16:33:17.597,0.69
2025-05-22T16:33:17.600,0.64
2025-05-22T16:33:17.604,0.61
2025-05-22T16:33:17.608,0.58
2025-05-22T16:33:17.612,0.52
2025-05-22T16:33:17.615,0.45
2025-05-22T16:33:17.619,0.40
2025-05-22T16:33:17.623,0.31
2025-05-22T16:33:17.627,0.22
2025-05-22T16:33:17.630,0.13
2025-05-22T16:33:17.634,0.06
2025-05-22T16:33:17.638,0.00
2025-05-22T16:33:17.642,-0.05
2025-05-22T16:33:17.645,-0.13
2025-05-22T16:33:17.649,-0.20
2025-05-22T16:33:17.653,-0.24
2025-05-22T16:33:17.657,-0.27
2025-05-22T16:33:17.660,-0.32
2025-05-22T16:33:17.664,-0.37
2025-05-22T16:33:17.668,-0.38
2025-05-22T16:33:17.672,-0.37
2025-05-22T16:33:17.675,-0.37
2025-05-22T16:33:17.679,-0.39
2025-05-22T16:33:17.683,-0.39
2025-05-22T16:33:17.687,-0.39
2025-05-22T16:33:17.690,-0.40
2025-05-22T16:33:17.694,-0.37
2025-05-22T16:33:17.698,-0.37
2025-05-22T16:33:17.702,-0.39
2025-05-22T16:33:17.705,-0.38
2025-05-22T16:33:17.709,-0.35
2025-05-22T16:33:17.713,-0.33
2025-05-22T16:33:17.717,-0.31
2025-05-22T16:33:17.720,-0.29
2025-05-22T16:33:17.724,-0.29
2025-05-22T16:33:17.728,-0.28
2025-05-22T16:33:17.732,-0.27
2025-05-22T16:33:17.735,-0.26
2025-05-22T16:33:17.739,-0.24
2025-05-22T16:33:17.743,-0.23
2025-05-22T16:33:17.747,-0.25
2025-05-22T16:33:17.750,-0.26
2025-05-22T16:33:17.754,-0.27
2025-05-22T16:33:17.758,-0.26
2025-05-22T16:33:17.762,-0.25
2025-05-22T16:33:17.765,-0.24
2025-05-22T16:33:17.769,-0.22
2025-05-22T16:33:17.773,-0.22
2025-05-22T16:33:17.777,-0.24
2025-05-22T16:33:17.780,-0.25
2025-05-22T16:33:17.784,-0.26
2025-05-22T16:33:17.788,-0.25
2025-05-22T16:33:17.792,-0.23
2025-05-22T16:33:17.795,-0.24
2025-05-22T16:33:17.799,-0.29
2025-05-22T16:33:17.803,-0.30
2025-05-22T16:33:17.807,-0.28
2025-05-22T16:33:17.810,-0.25
2025-05-22T16:33:17.814,-0.24
2025-05-22T16:33:17.818,-0.24
2025-05-22T16:33:17.822,-0.24
2025-05-22T16:33:17.825,-0.27
2025-05-22T16:33:17.829,-0.27
2025-05-22T16:33:17.833,-0.23
2025-05-22T16:33:17.837,-0.21
2025-05-22T16:33:17.840,-0.21
2025-05-22T16:33:17.844,-0.20
2025-05-22T16:33:17.848,-0.15
2025-05-22T16:33:17.852,-0.08
2025-05-22T16:33:17.855,-0.04
2025-05-22T16:33:17.859,-0.03
2025-05-22T16:33:17.863,-0.02
2025-05-22T16:33:17.867,0.03
2025-05-22T16:33:17.870,0.08
2025-05-22T16:33:17.874,0.15
2025-05-22T16:33:17.878,0.20
2025-05-22T16:33:17.882,0.15
2025-05-22T16:33:17.885,0.09
2025-05-22T16:33:17.889,0.06
2025-05-22T16:33:17.893,0.01
2025-05-22T16:33:17.897,-0.05
2025-05-22T16:33:17.900,-0.10
2025-05-22T16:33:17.904,-0.13
2025-05-22T16:33:17.908,-0.17
2025-05-22T16:33:17.912,-0.27
2025-05-22T16:33:17.915,-0.33
2025-05-22T16:33:17.919,-0.35
2025-05-22T16:33:17.923,-0.38
2025-05-22T16:33:17.927,-0.39
2025-05-22T16:33:17.930,-0.38
2025-05-22T16:33:17.934,-0.37
2025-05-22T16:33:17.938,-0.36
2025-05-22T16:33:17.942,-0.34
2025-05-22T16:33:17.945,-0.34
2025-05-22T16:33:17.949,-0.35
2025-05-22T16:33:17.953,-0.37
2025-05-22T16:33:17.957,-0.39
2025-05-22T16:33:17.960,-0.37
2025-05-22T16:33:17.964,-0.36
2025-05-22T16:33:17.968,-0.35
2025-05-22T16:33:17.972,-0.36
2025-05-22T16:33:17.975,-0.37
2025-05-22T16:33:17.979,-0.33
2025-05-22T16:33:17.983,-0.31
2025-05-22T16:33:17.987,-0.34
2025-05-22T16:33:17.990,-0.39
2025-05-22T16:33:17.994,-0.36
2025-05-22T16:33:17.998,-0.17
2025-05-22T16:33:18.002,0.23
2025-05-22T16:33:18.005,0.67
2025-05-22T16:33:18.009,1.13
2025-05-22T16:33:18.013,1.63
2025-05-22T16:33:18.017,2.18
2025-05-22T16:33:18.020,2.79
2025-05-22T16:33:18.024,3.08
2025-05-22T16:33:18.028,2.46
2025-05-22T16:33:18.032,0.90
2025-05-22T16:33:18.035,-0.67
2025-05-22T16:33:18.039,-1.34
2025-05-22T16:33:18.043,-1.48
2025-05-22T16:33:18.047,-1.39
2025-05-22T16:33:18.050,-1.32
2025-05-22T16:33:18.054,-1.24
2025-05-22T16:33:18.058,-1.07
2025-05-22T16:33:18.062,-0.79
2025-05-22T16:33:18.065,-0.46
2025-05-22T16:33:18.069,-0.21
2025-05-22T16:33:18.073,-0.11
2025-05-22T16:33:18.077,-0.10
2025-05-22T16:33:18.080,-0.10
2025-05-22T16:33:18.084,-0.10
2025-05-22T16:33:18.088,-0.08
2025-05-22T16:33:18.092,-0.03
2025-05-22T16:33:18.095,0.00
2025-05-22T16:33:18.099,0.02
2025-05-22T16:33:18.103,0.02
2025-05-22T16:33:18.107,0.02
2025-05-22T16:33:18.110,0.05
2025-05-22T16:33:18.114,0.07
2025-05-22T16:33:18.118,0.08
2025-05-22T16:33:18.122,0.08
2025-05-22T16:33:18.125,0.08
2025-05-22T16:33:18.129,0.10
2025-05-22T16:33:18.133,0.09
2025-05-22T16:33:18.137,0.11
2025-05-22T16:33:18.140,0.13
2025-05-22T16:33:18.144,0.15
2025-05-22T16:33:18.148,0.17
2025-05-22T16:33:18.152,0.18
2025-05-22T16:33:18.155,0.19
2025-05-22T16:33:18.159,0.19
2025-05-22T16:33:18.163,0.19
2025-05-22T16:33:18.167,0.21
2025-05-22T16:33:18.170,0.23
2025-05-22T16:33:18.174,0.26
2025-05-22T16:33:18.178,0.28
2025-05-22T16:33:18.182,0.31
2025-05-22T16:33:18.185,0.33
2025-05-22T16:33:18.189,0.34
2025-05-22T16:33:18.193,0.35
2025-05-22T16:33:18.197,0.36
2025-05-22T16:33:18.200,0.39
2025-05-22T16:33:18.204,0.44
2025-05-22T16:33:18.208,0.47
2025-05-22T16:33:18.212,0.50
2025-05-22T16:33:18.215,0.53
2025-05-22T16:33:18.219,0.57
2025-05-22T16:33:18.223,0.60
2025-05-22T16:33:18.227,0.62
2025-05-22T16:33:18.230,0.65
2025-05-22T16:33:18.234,0.70
2025-05-22T16:33:18.238,0.74
2025-05-22T16:33:18.242,0.77
2025-05-22T16:33:18.245,0.81
2025-05-22T16:33:18.249,0.84
2025-05-22T16:33:18.253,0.87
2025-05-22T16:33:18.257,0.88
2025-05-22T16:33:18.260,0.87
2025-05-22T16:33:18.264,0.85
2025-05-22T16:33:18.268,0.83
2025-05-22T16:33:18.272,0.83
2025-05-22T16:33:18.275,0.81
2025-05-22T16:33:18.279,0.77
2025-05-22T16:33:18.283,0.73
2025-05-22T16:33:18.283,0.68
2025-05-22T16:33:18.283,0.66
2025-05-22T16:33:18.283,0.60
2025-05-22T16:33:18.283,0.52
2025-05-22T16:33:18.287,0.44
2025-05-22T16:33:18.290,0.35
2025-05-22T16:33:18.294,0.27
2025-05-22T16:33:18.298,0.20
2025-05-22T16:33:18.302,0.12
2025-05-22T16:33:18.305,0.05
2025-05-22T16:33:18.309,-0.01
2025-05-22T16:33:18.313,-0.07
2025-05-22T16:33:18.317,-0.13
2025-05-22T16:33:18.320,-0.16
2025-05-22T16:33:18.324,-0.18
2025-05-22T16:33:18.328,-0.21
2025-05-22T16:33:18.332,-0.25
2025-05-22T16:33:18.335,-0.29
2025-05-22T16:33:18.339,-0.29
2025-05-22T16:33:18.343,-0.29
2025-05-22T16:33:18.347,-0.30
2025-05-22T16:33:18.350,-0.31
2025-05-22T16:33:18.354,-0.31
2025-05-22T16:33:18.358,-0.32
2025-05-22T16:33:18.362,-0.31
2025-05-22T16:33:18.365,-0.31
2025-05-22T16:33:18.369,-0.31
2025-05-22T16:33:18.373,-0.31
2025-05-22T16:33:18.377,-0.30
2025-05-22T16:33:18.380,-0.28
2025-05-22T16:33:18.384,-0.27
2025-05-22T16:33:18.388,-0.26
2025-05-22T16:33:18.392,-0.26
2025-05-22T16:33:18.395,-0.26
2025-05-22T16:33:18.399,-0.25
2025-05-22T16:33:18.403,-0.23
2025-05-22T16:33:18.407,-0.22
2025-05-22T16:33:18.410,-0.22
2025-05-22T16:33:18.414,-0.22
2025-05-22T16:33:18.418,-0.18
2025-05-22T16:33:18.422,-0.16
2025-05-22T16:33:18.425,-0.17
2025-05-22T16:33:18.429,-0.21
2025-05-22T16:33:18.433,-0.22
2025-05-22T16:33:18.437,-0.22
2025-05-22T16:33:18.440,-0.21
2025-05-22T16:33:18.444,-0.21
2025-05-22T16:33:18.448,-0.22
2025-05-22T16:33:18.452,-0.23
2025-05-22T16:33:18.455,-0.24
2025-05-22T16:33:18.459,-0.27
2025-05-22T16:33:18.463,-0.28
2025-05-22T16:33:18.467,-0.27
2025-05-22T16:33:18.470,-0.27
2025-05-22T16:33:18.474,-0.26
2025-05-22T16:33:18.478,-0.24
2025-05-22T16:33:18.482,-0.23
2025-05-22T16:33:18.485,-0.23
2025-05-22T16:33:18.489,-0.21
2025-05-22T16:33:18.493,-0.18
2025-05-22T16:33:18.497,-0.13
2025-05-22T16:33:18.500,-0.08
2025-05-22T16:33:18.504,-0.05
2025-05-22T16:33:18.508,-0.05
2025-05-22T16:33:18.512,-0.02
2025-05-22T16:33:18.515,0.04
2025-05-22T16:33:18.519,0.09
2025-05-22T16:33:18.523,0.15
2025-05-22T16:33:18.527,0.15
2025-05-22T16:33:18.530,0.08
2025-05-22T16:33:18.534,0.05
2025-05-22T16:33:18.538,0.02
2025-05-22T16:33:18.542,-0.02
2025-05-22T16:33:18.545,-0.07
2025-05-22T16:33:18.549,-0.14
2025-05-22T16:33:18.553,-0.21
2025-05-22T16:33:18.557,-0.25
2025-05-22T16:33:18.560,-0.31
2025-05-22T16:33:18.564,-0.37
2025-05-22T16:33:18.568,-0.40
2025-05-22T16:33:18.572,-0.42
2025-05-22T16:33:18.575,-0.43
2025-05-22T16:33:18.579,-0.42
2025-05-22T16:33:18.583,-0.43
2025-05-22T16:33:18.587,-0.44
2025-05-22T16:33:18.590,-0.44
2025-05-22T16:33:18.594,-0.43
2025-05-22T16:33:18.598,-0.42
2025-05-22T16:33:18.602,-0.41
2025-05-22T16:33:18.605,-0.41
2025-05-22T16:33:18.609,-0.42
2025-05-22T16:33:18.613,-0.42
2025-05-22T16:33:18.617,-0.42
2025-05-22T16:33:18.620,-0.43
2025-05-22T16:33:18.624,-0.42
2025-05-22T16:33:18.628,-0.41
2025-05-22T16:33:18.632,-0.42
2025-05-22T16:33:18.635,-0.44
2025-05-22T16:33:18.639,-0.47
2025-05-22T16:33:18.643,-0.46
2025-05-22T16:33:18.647,-0.24
2025-05-22T16:33:18.650,0.16
2025-05-22T16:33:18.654,0.60
2025-05-22T16:33:18.658,1.09
2025-05-22T16:33:18.662,1.64
2025-05-22T16:33:18.665,2.22
2025-05-22T16:33:18.669,2.86
2025-05-22T16:33:18.673,3.06
2025-05-22T16:33:18.677,2.31
2025-05-22T16:33:18.680,0.60
2025-05-22T16:33:18.684,-0.91
2025-05-22T16:33:18.688,-1.50
2025-05-22T16:33:18.692,-1.62
2025-05-22T16:33:18.695,-1.52
2025-05-22T16:33:18.699,-1.43
2025-05-22T16:33:18.703,-1.29
2025-05-22T16:33:18.707,-1.10
2025-05-22T16:33:18.710,-0.83
2025-05-22T16:33:18.714,-0.52
2025-05-22T16:33:18.718,-0.33
2025-05-22T16:33:18.722,-0.27
2025-05-22T16:33:18.725,-0.25
2025-05-22T16:33:18.729,-0.25
2025-05-22T16:33:18.733,-0.25
2025-05-22T16:33:18.737,-0.25
2025-05-22T16:33:18.740,-0.23
2025-05-22T16:33:18.744,-0.20
2025-05-22T16:33:18.748,-0.18
2025-05-22T16:33:18.752,-0.19
2025-05-22T16:33:18.755,-0.19
2025-05-22T16:33:18.759,-0.17
2025-05-22T16:33:18.763,-0.15
2025-05-22T16:33:18.767,-0.15
2025-05-22T16:33:18.770,-0.14
2025-05-22T16:33:18.774,-0.14
2025-05-22T16:33:18.778,-0.13
2025-05-22T16:33:18.782,-0.11
2025-05-22T16:33:18.785,-0.10
2025-05-22T16:33:18.789,-0.09
2025-05-22T16:33:18.793,-0.09
2025-05-22T16:33:18.797,-0.07
2025-05-22T16:33:18.800,-0.05
2025-05-22T16:33:18.804,-0.03
2025-05-22T16:33:18.808,-0.01
2025-05-22T16:33:18.812,0.02
2025-05-22T16:33:18.815,0.04
2025-05-22T16:33:18.819,0.05
2025-05-22T16:33:18.823,0.07
2025-05-22T16:33:18.827,0.07
2025-05-22T16:33:18.830,0.08
2025-05-22T16:33:18.834,0.11
2025-05-22T16:33:18.838,0.13
2025-05-22T16:33:18.842,0.15
2025-05-22T16:33:18.845,0.17
2025-05-22T16:33:18.849,0.19
2025-05-22T16:33:18.853,0.21
2025-05-22T16:33:18.857,0.24
2025-05-22T16:33:18.860,0.28
2025-05-22T16:33:18.864,0.30
2025-05-22T16:33:18.868,0.33
2025-05-22T16:33:18.872,0.36
2025-05-22T16:33:18.875,0.39
2025-05-22T16:33:18.879,0.42
2025-05-22T16:33:18.883,0.45
2025-05-22T16:33:18.887,0.47
2025-05-22T16:33:18.890,0.50
2025-05-22T16:33:18.894,0.53
2025-05-22T16:33:18.898,0.56
2025-05-22T16:33:18.898,0.65
2025-05-22T16:33:18.898,0.65
2025-05-22T16:33:18.898,0.63
2025-05-22T16:33:18.898,0.62
2025-05-22T16:33:18.898,0.60
2025-05-22T16:33:18.898,0.60
2025-05-22T16:33:18.898,0.58
2025-05-22T16:33:18.898,0.55
2025-05-22T16:33:18.898,0.51
2025-05-22T16:33:18.898,0.47
2025-05-22T16:33:18.898,0.42
2025-05-22T16:33:18.898,0.35
2025-05-22T16:33:18.898,0.28
2025-05-22T16:33:18.898,0.20
2025-05-22T16:33:18.898,0.14
2025-05-22T16:33:18.898,0.09
2025-05-22T16:33:18.898,0.03
2025-05-22T16:33:18.898,-0.04
2025-05-22T16:33:18.898,-0.11
2025-05-22T16:33:18.898,-0.17
2025-05-22T16:33:18.898,-0.21
2025-05-22T16:33:18.898,-0.24
2025-05-22T16:33:18.898,-0.28
2025-05-22T16:33:18.898,-0.31
2025-05-22T16:33:18.898,-0.34
2025-05-22T16:33:18.898,-0.36
2025-05-22T16:33:18.898,-0.37
2025-05-22T16:33:18.898,-0.36
2025-05-22T16:33:18.898,-0.36
2025-05-22T16:33:18.898,-0.36
2025-05-22T16:33:18.898,-0.36
2025-05-22T16:33:18.898,-0.42
2025-05-22T16:33:18.898,-0.42
2025-05-22T16:33:18.898,-0.42
2025-05-22T16:33:18.898,-0.42
2025-05-22T16:33:18.898,-0.42
2025-05-22T16:33:18.898,-0.42
2025-05-22T16:33:18.898,-0.42
2025-05-22T16:33:18.898,-0.43
2025-05-22T16:33:18.898,-0.44
2025-05-22T16:33:18.898,-0.44
2025-05-22T16:33:18.898,-0.45
2025-05-22T16:33:18.898,-0.45
2025-05-22T16:33:18.898,-0.42
2025-05-22T16:33:18.898,-0.40
2025-05-22T16:33:18.898,-0.37
2025-05-22T16:33:18.898,-0.37
2025-05-22T16:33:18.898,-0.35
2025-05-22T16:33:18.898,-0.30
2025-05-22T16:33:18.898,-0.23
2025-05-22T16:33:18.898,-0.17
2025-05-22T16:33:18.898,-0.12
2025-05-22T16:33:18.898,-0.09
2025-05-22T16:33:18.898,-0.09
2025-05-22T16:33:18.898,-0.09
2025-05-22T16:33:18.898,-0.11
2025-05-22T16:33:18.898,-0.13
2025-05-22T16:33:18.898,-0.19
2025-05-22T16:33:18.898,-0.27
2025-05-22T16:33:18.898,-0.33
2025-05-22T16:33:18.898,-0.35
2025-05-22T16:33:18.898,-0.39
2025-05-22T16:33:18.898,-0.43
2025-05-22T16:33:18.898,-0.48
2025-05-22T16:33:18.898,-0.53
2025-05-22T16:33:18.898,-0.56
2025-05-22T16:33:18.898,-0.57
2025-05-22T16:33:18.898,-0.57
2025-05-22T16:33:18.898,-0.57
2025-05-22T16:33:18.898,-0.57
2025-05-22T16:33:18.898,-0.56
2025-05-22T16:33:18.898,-0.56
2025-05-22T16:33:18.898,-0.57
2025-05-22T16:33:18.898,-0.57
2025-05-22T16:33:18.898,-0.57
2025-05-22T16:33:18.898,-0.56
2025-05-22T16:33:18.898,-0.55
2025-05-22T16:33:18.898,-0.56
2025-05-22T16:33:18.898,-0.57
2025-05-22T16:33:18.898,-0.56
2025-05-22T16:33:18.898,-0.57
2025-05-22T16:33:18.898,-0.58
2025-05-22T16:33:18.898,-0.60
2025-05-22T16:33:18.898,-0.59
2025-05-22T16:33:18.898,-0.39
2025-05-22T16:33:18.898,-0.02
2025-05-22T16:33:18.898,0.38
2025-05-22T16:33:18.898,0.81
2025-05-22T16:33:18.898,1.33
2025-05-22T16:33:18.898,1.94
2025-05-22T16:33:18.898,2.62
2025-05-22T16:33:18.898,3.02
2025-05-22T16:33:18.898,2.67
2025-05-22T16:33:18.898,1.32
2025-05-22T16:33:18.898,-0.33
2025-05-22T16:33:18.898,-1.26
2025-05-22T16:33:18.898,-1.60
2025-05-22T16:33:18.898,-1.58
2025-05-22T16:33:18.898,-1.49
2025-05-22T16:33:18.898,-1.37
2025-05-22T16:33:18.898,-1.16
2025-05-22T16:33:18.898,-0.86
2025-05-22T16:33:18.898,-0.56
2025-05-22T16:33:18.898,-0.42
2025-05-22T16:33:18.898,-0.40
2025-05-22T16:33:18.898,-0.40
2025-05-22T16:33:18.898,-0.39
2025-05-22T16:33:18.898,-0.36
2025-05-22T16:33:18.898,-0.34
2025-05-22T16:33:18.898,-0.34
2025-05-22T16:33:18.898,-0.33
2025-05-22T16:33:18.898,-0.31
2025-05-22T16:33:18.898,-0.28
2025-05-22T16:33:18.898,-0.26
2025-05-22T16:33:18.898,-0.26
2025-05-22T16:33:18.898,-0.26
2025-05-22T16:33:18.898,-0.24
2025-05-22T16:33:18.898,-0.22
2025-05-22T16:33:18.898,-0.20
2025-05-22T16:33:18.898,-0.19
2025-05-22T16:33:18.898,-0.17
2025-05-22T16:33:18.898,-0.15
2025-05-22T16:33:18.898,-0.14
2025-05-22T16:33:18.898,-0.11
2025-05-22T16:33:18.898,-0.10
2025-05-22T16:33:18.898,-0.10
2025-05-22T16:33:18.898,-0.08
2025-05-22T16:33:18.898,-0.06
2025-05-22T16:33:18.898,-0.04
2025-05-22T16:33:18.898,-0.00
2025-05-22T16:33:18.898,0.01
2025-05-22T16:33:18.898,0.03
2025-05-22T16:33:18.898,0.05
2025-05-22T16:33:18.898,0.07
2025-05-22T16:33:18.898,0.09
2025-05-22T16:33:18.898,0.11
2025-05-22T16:33:18.898,0.15
2025-05-22T16:33:18.898,0.19
2025-05-22T16:33:18.898,0.20
2025-05-22T16:33:18.898,0.23
2025-05-22T16:33:18.898,0.25
2025-05-22T16:33:18.898,0.26
2025-05-22T16:33:18.898,0.28
2025-05-22T16:33:18.898,0.33
2025-05-22T16:33:18.898,0.37
2025-05-22T16:33:18.898,0.41
2025-05-22T16:33:18.898,0.43
2025-05-22T16:33:18.898,0.46
2025-05-22T16:33:18.898,0.51
2025-05-22T16:33:18.898,0.55
2025-05-22T16:33:18.898,0.59
2025-05-22T16:33:18.898,0.62
2025-05-22T16:33:18.898,0.62
2025-05-22T16:33:18.898,0.61
2025-05-22T16:33:18.898,0.62
2025-05-22T16:33:18.898,0.64
2025-05-22T16:33:18.898,0.64
2025-05-22T16:33:18.898,0.62
2025-05-22T16:33:18.898,0.62
2025-05-22T16:33:18.898,0.61
2025-05-22T16:33:18.898,0.58
2025-05-22T16:33:18.898,0.55
2025-05-22T16:33:18.898,0.51
2025-05-22T16:33:18.898,0.48
2025-05-22T16:33:18.898,0.44
2025-05-22T16:33:18.898,0.40
2025-05-22T16:33:18.898,0.35
2025-05-22T16:33:18.898,0.29
2025-05-22T16:33:18.898,0.25
2025-05-22T16:33:18.898,0.19
2025-05-22T16:33:18.898,0.14
2025-05-22T16:33:18.898,0.09
2025-05-22T16:33:18.898,0.05
2025-05-22T16:33:18.898,0.02
2025-05-22T16:33:18.898,-0.02
2025-05-22T16:33:18.898,-0.06
2025-05-22T16:33:18.898,-0.08
2025-05-22T16:33:18.898,-0.09
2025-05-22T16:33:18.898,-0.10
2025-05-22T16:33:18.898,-0.10
2025-05-22T16:33:18.898,-0.11
2025-05-22T16:33:18.898,-0.13
2025-05-22T16:33:18.898,-0.14
2025-05-22T16:33:18.898,-0.15
2025-05-22T16:33:18.898,-0.15
2025-05-22T16:33:18.898,-0.16
2025-05-22T16:33:18.898,-0.17
2025-05-22T16:33:18.898,-0.16
2025-05-22T16:33:18.898,-0.13
2025-05-22T16:33:18.898,-0.10
2025-05-22T16:33:18.898,-0.10
2025-05-22T16:33:18.898,-0.11
2025-05-22T16:33:18.898,-0.12
2025-05-22T16:33:18.898,-0.10
2025-05-22T16:33:18.898,-0.10
2025-05-22T16:33:18.898,-0.08
2025-05-22T16:33:18.898,-0.08
2025-05-22T16:33:18.898,-0.08
2025-05-22T16:33:18.898,-0.07
2025-05-22T16:33:18.898,-0.08
2025-05-22T16:33:18.898,-0.09
2025-05-22T16:33:18.898,-0.10
2025-05-22T16:33:18.898,-0.11
2025-05-22T16:33:18.898,-0.11
2025-05-22T16:33:18.898,-0.10
2025-05-22T16:33:18.898,-0.11
2025-05-22T16:33:18.898,-0.12
2025-05-22T16:33:18.898,-0.11
2025-05-22T16:33:18.898,-0.11
2025-05-22T16:33:18.898,-0.14
2025-05-22T16:33:18.898,-0.17
2025-05-22T16:33:18.898,-0.17
2025-05-22T16:33:18.898,-0.16
2025-05-22T16:33:18.898,-0.16
2025-05-22T16:33:18.898,-0.15
2025-05-22T16:33:18.902,-0.19
2025-05-22T16:33:18.906,-0.22
2025-05-22T16:33:18.910,-0.23
2025-05-22T16:33:18.913,-0.24
2025-05-22T16:33:18.917,-0.24
2025-05-22T16:33:18.921,-0.23
2025-05-22T16:33:18.925,-0.24
2025-05-22T16:33:18.928,-0.26
2025-05-22T16:33:18.932,-0.25
2025-05-22T16:33:18.936,-0.26
2025-05-22T16:33:18.940,-0.28
2025-05-22T16:33:18.943,-0.27
2025-05-22T16:33:18.947,-0.28
2025-05-22T16:33:18.951,-0.29
2025-05-22T16:33:18.955,-0.29
2025-05-22T16:33:18.958,-0.28
2025-05-22T16:33:18.962,-0.30
2025-05-22T16:33:18.966,-0.32
2025-05-22T16:33:18.970,-0.33
2025-05-22T16:33:18.973,-0.30
2025-05-22T16:33:18.977,-0.30
2025-05-22T16:33:18.981,-0.32
2025-05-22T16:33:18.985,-0.33
2025-05-22T16:33:18.988,-0.32
2025-05-22T16:33:18.992,-0.31
2025-05-22T16:33:18.996,-0.30
2025-05-22T16:33:19.000,-0.29
2025-05-22T16:33:19.003,-0.29
2025-05-22T16:33:19.007,-0.30
2025-05-22T16:33:19.011,-0.32
2025-05-22T16:33:19.015,-0.32
2025-05-22T16:33:19.018,-0.31
2025-05-22T16:33:19.022,-0.32
2025-05-22T16:33:19.026,-0.33
2025-05-22T16:33:19.030,-0.34
2025-05-22T16:33:19.033,-0.32
2025-05-22T16:33:19.037,-0.32
2025-05-22T16:33:19.041,-0.32
2025-05-22T16:33:19.045,-0.32
2025-05-22T16:33:19.048,-0.31
2025-05-22T16:33:19.052,-0.32
2025-05-22T16:33:19.056,-0.33
2025-05-22T16:33:19.060,-0.34
2025-05-22T16:33:19.063,-0.36
2025-05-22T16:33:19.067,-0.35
2025-05-22T16:33:19.071,-0.32
2025-05-22T16:33:19.075,-0.30
2025-05-22T16:33:19.078,-0.31
2025-05-22T16:33:19.082,-0.33
2025-05-22T16:33:19.086,-0.34
2025-05-22T16:33:19.090,-0.35
2025-05-22T16:33:19.093,-0.34
2025-05-22T16:33:19.097,-0.33
2025-05-22T16:33:19.101,-0.32
2025-05-22T16:33:19.105,-0.33
2025-05-22T16:33:19.108,-0.33
2025-05-22T16:33:19.112,-0.35
2025-05-22T16:33:19.116,-0.35
2025-05-22T16:33:19.120,-0.34
2025-05-22T16:33:19.123,-0.32
2025-05-22T16:33:19.127,-0.32
2025-05-22T16:33:19.131,-0.33
2025-05-22T16:33:19.135,-0.35
2025-05-22T16:33:19.138,-0.34
2025-05-22T16:33:19.142,-0.34
2025-05-22T16:33:19.146,-0.35
2025-05-22T16:33:19.150,-0.36
2025-05-22T16:33:19.153,-0.36
2025-05-22T16:33:19.157,-0.34
2025-05-22T16:33:19.161,-0.32
2025-05-22T16:33:19.165,-0.33
2025-05-22T16:33:19.168,-0.36
2025-05-22T16:33:19.172,-0.37
2025-05-22T16:33:19.176,-0.35
2025-05-22T16:33:19.180,-0.33
2025-05-22T16:33:19.183,-0.31
2025-05-22T16:33:19.187,-0.32
2025-05-22T16:33:19.191,-0.34
2025-05-22T16:33:19.195,-0.36
2025-05-22T16:33:19.198,-0.34
2025-05-22T16:33:19.202,-0.34
2025-05-22T16:33:19.206,-0.35
2025-05-22T16:33:19.210,-0.36
2025-05-22T16:33:19.213,-0.34
2025-05-22T16:33:19.217,-0.30
2025-05-22T16:33:19.221,-0.27
2025-05-22T16:33:19.225,-0.25
2025-05-22T16:33:19.228,-0.24
2025-05-22T16:33:19.232,-0.23
2025-05-22T16:33:19.236,-0.18
2025-05-22T16:33:19.240,-0.12
2025-05-22T16:33:19.243,-0.09
2025-05-22T16:33:19.247,-0.07
2025-05-22T16:33:19.251,-0.04
2025-05-22T16:33:19.255,-0.03
2025-05-22T16:33:19.258,-0.01
2025-05-22T16:33:19.262,-0.01
2025-05-22T16:33:19.266,-0.06
2025-05-22T16:33:19.270,-0.13
2025-05-22T16:33:19.273,-0.19
2025-05-22T16:33:19.277,-0.22
2025-05-22T16:33:19.281,-0.24
2025-05-22T16:33:19.285,-0.28
2025-05-22T16:33:19.288,-0.32
2025-05-22T16:33:19.292,-0.37
2025-05-22T16:33:19.296,-0.41
2025-05-22T16:33:19.300,-0.44
2025-05-22T16:33:19.303,-0.46
2025-05-22T16:33:19.307,-0.47
2025-05-22T16:33:19.311,-0.46
2025-05-22T16:33:19.315,-0.44
2025-05-22T16:33:19.318,-0.43
2025-05-22T16:33:19.322,-0.43
2025-05-22T16:33:19.326,-0.44
2025-05-22T16:33:19.330,-0.44
2025-05-22T16:33:19.333,-0.43
2025-05-22T16:33:19.337,-0.42
2025-05-22T16:33:19.341,-0.42
2025-05-22T16:33:19.345,-0.41
2025-05-22T16:33:19.348,-0.42
2025-05-22T16:33:19.352,-0.45
2025-05-22T16:33:19.356,-0.48
2025-05-22T16:33:19.360,-0.49
2025-05-22T16:33:19.363,-0.33
2025-05-22T16:33:19.367,0.04
2025-05-22T16:33:19.371,0.43
2025-05-22T16:33:19.375,0.83
2025-05-22T16:33:19.378,1.32
2025-05-22T16:33:19.382,1.88
2025-05-22T16:33:19.386,2.57
2025-05-22T16:33:19.390,3.05
2025-05-22T16:33:19.393,2.75
2025-05-22T16:33:19.397,1.34
2025-05-22T16:33:19.401,-0.41
2025-05-22T16:33:19.405,-1.28
2025-05-22T16:33:19.408,-1.53
2025-05-22T16:33:19.412,-1.43
2025-05-22T16:33:19.416,-1.29
2025-05-22T16:33:19.420,-1.23
2025-05-22T16:33:19.423,-1.10
2025-05-22T16:33:19.427,-0.88
2025-05-22T16:33:19.431,-0.60
2025-05-22T16:33:19.435,-0.39
2025-05-22T16:33:19.438,-0.29
2025-05-22T16:33:19.442,-0.28
2025-05-22T16:33:19.446,-0.28
2025-05-22T16:33:19.450,-0.27
2025-05-22T16:33:19.453,-0.25
2025-05-22T16:33:19.457,-0.22
2025-05-22T16:33:19.461,-0.21
2025-05-22T16:33:19.465,-0.19
2025-05-22T16:33:19.468,-0.17
2025-05-22T16:33:19.472,-0.16
2025-05-22T16:33:19.476,-0.14
2025-05-22T16:33:19.480,-0.13
2025-05-22T16:33:19.483,-0.12
2025-05-22T16:33:19.487,-0.11
2025-05-22T16:33:19.491,-0.09
2025-05-22T16:33:19.495,-0.08
2025-05-22T16:33:19.498,-0.07
2025-05-22T16:33:19.502,-0.06
2025-05-22T16:33:19.506,-0.04
2025-05-22T16:33:19.510,-0.02
2025-05-22T16:33:19.513,-0.01
2025-05-22T16:33:19.517,0.00
2025-05-22T16:33:19.521,0.01
2025-05-22T16:33:19.525,0.02
2025-05-22T16:33:19.528,0.04
2025-05-22T16:33:19.532,0.06
2025-05-22T16:33:19.536,0.07
2025-05-22T16:33:19.540,0.09
2025-05-22T16:33:19.543,0.11
2025-05-22T16:33:19.547,0.12
2025-05-22T16:33:19.551,0.13
2025-05-22T16:33:19.555,0.15
2025-05-22T16:33:19.558,0.18
2025-05-22T16:33:19.562,0.21
2025-05-22T16:33:19.566,0.22
2025-05-22T16:33:19.570,0.24
2025-05-22T16:33:19.573,0.27
2025-05-22T16:33:19.577,0.30
2025-05-22T16:33:19.581,0.33
2025-05-22T16:33:19.585,0.36
2025-05-22T16:33:19.588,0.38
2025-05-22T16:33:19.592,0.41
2025-05-22T16:33:19.596,0.44
2025-05-22T16:33:19.600,0.46
2025-05-22T16:33:19.603,0.48
2025-05-22T16:33:19.607,0.51
2025-05-22T16:33:19.611,0.53
2025-05-22T16:33:19.615,0.57
2025-05-22T16:33:19.618,0.58
2025-05-22T16:33:19.622,0.58
2025-05-22T16:33:19.626,0.58
2025-05-22T16:33:19.630,0.58
2025-05-22T16:33:19.633,0.56
2025-05-22T16:33:19.637,0.55
2025-05-22T16:33:19.641,0.54
2025-05-22T16:33:19.645,0.51
2025-05-22T16:33:19.648,0.48
2025-05-22T16:33:19.652,0.46
2025-05-22T16:33:19.656,0.43
2025-05-22T16:33:19.660,0.39
2025-05-22T16:33:19.663,0.34
2025-05-22T16:33:19.667,0.28
2025-05-22T16:33:19.671,0.23
2025-05-22T16:33:19.675,0.19
2025-05-22T16:33:19.678,0.15
2025-05-22T16:33:19.682,0.11
2025-05-22T16:33:19.686,0.06
2025-05-22T16:33:19.690,0.02
2025-05-22T16:33:19.693,-0.00
2025-05-22T16:33:19.697,-0.02
2025-05-22T16:33:19.701,-0.05
2025-05-22T16:33:19.705,-0.08
2025-05-22T16:33:19.708,-0.10
2025-05-22T16:33:19.712,-0.12
2025-05-22T16:33:19.716,-0.14
2025-05-22T16:33:19.720,-0.16
2025-05-22T16:33:19.723,-0.18
2025-05-22T16:33:19.727,-0.21
2025-05-22T16:33:19.731,-0.22
2025-05-22T16:33:19.735,-0.22
2025-05-22T16:33:19.738,-0.21
2025-05-22T16:33:19.742,-0.21
2025-05-22T16:33:19.746,-0.22
2025-05-22T16:33:19.750,-0.23
2025-05-22T16:33:19.753,-0.22
2025-05-22T16:33:19.757,-0.21
2025-05-22T16:33:19.761,-0.20
2025-05-22T16:33:19.765,-0.20
2025-05-22T16:33:19.768,-0.20
2025-05-22T16:33:19.772,-0.19
2025-05-22T16:33:19.776,-0.18
2025-05-22T16:33:19.780,-0.17
2025-05-22T16:33:19.783,-0.17
2025-05-22T16:33:19.787,-0.16
2025-05-22T16:33:19.791,-0.16
2025-05-22T16:33:19.795,-0.16
2025-05-22T16:33:19.798,-0.15
2025-05-22T16:33:19.802,-0.15
2025-05-22T16:33:19.806,-0.15
2025-05-22T16:33:19.810,-0.16
2025-05-22T16:33:19.813,-0.17
2025-05-22T16:33:19.817,-0.16
2025-05-22T16:33:19.821,-0.16
2025-05-22T16:33:19.825,-0.17
2025-05-22T16:33:19.828,-0.19
2025-05-22T16:33:19.832,-0.20
2025-05-22T16:33:19.836,-0.19
2025-05-22T16:33:19.840,-0.19
2025-05-22T16:33:19.843,-0.21
2025-05-22T16:33:19.847,-0.23
2025-05-22T16:33:19.851,-0.22
2025-05-22T16:33:19.855,-0.22
2025-05-22T16:33:19.858,-0.22
2025-05-22T16:33:19.862,-0.23
2025-05-22T16:33:19.866,-0.22
2025-05-22T16:33:19.870,-0.22
2025-05-22T16:33:19.873,-0.22
2025-05-22T16:33:19.877,-0.22
2025-05-22T16:33:19.881,-0.23
2025-05-22T16:33:19.885,-0.24
2025-05-22T16:33:19.888,-0.25
2025-05-22T16:33:19.892,-0.26
2025-05-22T16:33:19.896,-0.25
2025-05-22T16:33:19.900,-0.26
2025-05-22T16:33:19.903,-0.27
2025-05-22T16:33:19.907,-0.28
2025-05-22T16:33:19.911,-0.28
2025-05-22T16:33:19.915,-0.28
2025-05-22T16:33:19.918,-0.28
2025-05-22T16:33:19.922,-0.29
2025-05-22T16:33:19.926,-0.30
2025-05-22T16:33:19.930,-0.31
2025-05-22T16:33:19.933,-0.31
2025-05-22T16:33:19.937,-0.31
2025-05-22T16:33:19.941,-0.30
2025-05-22T16:33:19.945,-0.30
2025-05-22T16:33:19.948,-0.31
2025-05-22T16:33:19.952,-0.30
2025-05-22T16:33:19.956,-0.29
2025-05-22T16:33:19.960,-0.29
2025-05-22T16:33:19.963,-0.29
2025-05-22T16:33:19.967,-0.30
2025-05-22T16:33:19.971,-0.30
2025-05-22T16:33:19.975,-0.30
2025-05-22T16:33:19.978,-0.29
2025-05-22T16:33:19.982,-0.30
2025-05-22T16:33:19.986,-0.31
2025-05-22T16:33:19.990,-0.31
2025-05-22T16:33:19.993,-0.29
2025-05-22T16:33:19.997,-0.28
