Time,ECG
2025-05-22T16:33:14.950,-0.09
2025-05-22T16:33:14.950,-0.06
2025-05-22T16:33:14.950,-0.05
2025-05-22T16:33:14.950,-0.07
2025-05-22T16:33:14.950,-0.11
2025-05-22T16:33:14.950,-0.13
2025-05-22T16:33:14.950,-0.09
2025-05-22T16:33:14.950,-0.07
2025-05-22T16:33:14.950,-0.06
2025-05-22T16:33:14.950,-0.09
2025-05-22T16:33:14.950,-0.12
2025-05-22T16:33:14.950,-0.13
2025-05-22T16:33:14.950,-0.15
2025-05-22T16:33:14.950,-0.12
2025-05-22T16:33:14.950,-0.08
2025-05-22T16:33:14.950,-0.08
2025-05-22T16:33:14.950,-0.12
2025-05-22T16:33:14.950,-0.12
2025-05-22T16:33:14.950,-0.12
2025-05-22T16:33:14.950,-0.13
2025-05-22T16:33:14.950,-0.11
2025-05-22T16:33:14.950,-0.11
2025-05-22T16:33:14.950,-0.14
2025-05-22T16:33:14.950,-0.14
2025-05-22T16:33:14.950,-0.11
2025-05-22T16:33:14.950,-0.10
2025-05-22T16:33:14.950,-0.12
2025-05-22T16:33:14.950,-0.12
2025-05-22T16:33:14.950,-0.13
2025-05-22T16:33:14.953,-0.14
2025-05-22T16:33:14.957,-0.13
2025-05-22T16:33:14.961,-0.15
2025-05-22T16:33:14.965,-0.13
2025-05-22T16:33:14.968,-0.10
2025-05-22T16:33:14.972,-0.11
2025-05-22T16:33:14.976,-0.12
2025-05-22T16:33:14.980,-0.12
2025-05-22T16:33:14.983,-0.11
2025-05-22T16:33:14.987,-0.09
2025-05-22T16:33:14.991,-0.05
2025-05-22T16:33:14.995,0.02
2025-05-22T16:33:14.998,0.05
2025-05-22T16:33:15.002,0.10
2025-05-22T16:33:15.006,0.12
2025-05-22T16:33:15.010,0.13
2025-05-22T16:33:15.013,0.18
2025-05-22T16:33:15.017,0.20
2025-05-22T16:33:15.021,0.15
2025-05-22T16:33:15.025,0.09
2025-05-22T16:33:15.028,0.03
2025-05-22T16:33:15.032,-0.01
2025-05-22T16:33:15.036,-0.03
2025-05-22T16:33:15.040,-0.05
2025-05-22T16:33:15.043,-0.11
2025-05-22T16:33:15.047,-0.15
2025-05-22T16:33:15.051,-0.18
2025-05-22T16:33:15.055,-0.22
2025-05-22T16:33:15.058,-0.24
2025-05-22T16:33:15.062,-0.26
2025-05-22T16:33:15.066,-0.26
2025-05-22T16:33:15.070,-0.24
2025-05-22T16:33:15.073,-0.27
2025-05-22T16:33:15.077,-0.29
2025-05-22T16:33:15.081,-0.29
2025-05-22T16:33:15.085,-0.27
2025-05-22T16:33:15.088,-0.26
2025-05-22T16:33:15.092,-0.25
2025-05-22T16:33:15.096,-0.23
2025-05-22T16:33:15.100,-0.23
2025-05-22T16:33:15.103,-0.26
2025-05-22T16:33:15.107,-0.24
2025-05-22T16:33:15.111,-0.23
2025-05-22T16:33:15.115,-0.26
2025-05-22T16:33:15.118,-0.29
2025-05-22T16:33:15.122,-0.13
2025-05-22T16:33:15.126,0.23
2025-05-22T16:33:15.130,0.62
2025-05-22T16:33:15.133,1.03
2025-05-22T16:33:15.137,1.54
2025-05-22T16:33:15.141,2.06
2025-05-22T16:33:15.145,2.71
2025-05-22T16:33:15.148,3.21
2025-05-22T16:33:15.152,2.87
2025-05-22T16:33:15.156,1.49
2025-05-22T16:33:15.160,-0.26
2025-05-22T16:33:15.163,-1.24
2025-05-22T16:33:15.167,-1.55
2025-05-22T16:33:15.171,-1.50
2025-05-22T16:33:15.175,-1.38
2025-05-22T16:33:15.178,-1.30
2025-05-22T16:33:15.182,-1.13
2025-05-22T16:33:15.186,-0.88
2025-05-22T16:33:15.190,-0.57
2025-05-22T16:33:15.193,-0.30
2025-05-22T16:33:15.197,-0.15
2025-05-22T16:33:15.201,-0.12
2025-05-22T16:33:15.205,-0.11
2025-05-22T16:33:15.208,-0.10
2025-05-22T16:33:15.212,-0.10
2025-05-22T16:33:15.216,-0.09
2025-05-22T16:33:15.220,-0.06
2025-05-22T16:33:15.223,-0.04
2025-05-22T16:33:15.227,-0.03
2025-05-22T16:33:15.231,-0.03
2025-05-22T16:33:15.235,-0.02
2025-05-22T16:33:15.238,-0.02
2025-05-22T16:33:15.242,0.00
2025-05-22T16:33:15.246,0.02
2025-05-22T16:33:15.250,0.03
2025-05-22T16:33:15.253,0.02
2025-05-22T16:33:15.257,0.02
2025-05-22T16:33:15.261,0.03
2025-05-22T16:33:15.265,0.05
2025-05-22T16:33:15.268,0.08
2025-05-22T16:33:15.272,0.10
2025-05-22T16:33:15.276,0.10
2025-05-22T16:33:15.280,0.11
2025-05-22T16:33:15.283,0.12
2025-05-22T16:33:15.287,0.16
2025-05-22T16:33:15.291,0.18
2025-05-22T16:33:15.295,0.20
2025-05-22T16:33:15.298,0.23
2025-05-22T16:33:15.302,0.23
2025-05-22T16:33:15.306,0.22
2025-05-22T16:33:15.310,0.24
2025-05-22T16:33:15.313,0.27
2025-05-22T16:33:15.317,0.30
2025-05-22T16:33:15.321,0.32
2025-05-22T16:33:15.325,0.33
2025-05-22T16:33:15.328,0.34
2025-05-22T16:33:15.332,0.37
2025-05-22T16:33:15.336,0.40
2025-05-22T16:33:15.340,0.42
2025-05-22T16:33:15.343,0.44
2025-05-22T16:33:15.347,0.47
2025-05-22T16:33:15.351,0.52
2025-05-22T16:33:15.355,0.58
2025-05-22T16:33:15.358,0.63
2025-05-22T16:33:15.362,0.65
2025-05-22T16:33:15.366,0.67
2025-05-22T16:33:15.370,0.71
2025-05-22T16:33:15.373,0.77
2025-05-22T16:33:15.377,0.79
2025-05-22T16:33:15.381,0.81
2025-05-22T16:33:15.385,0.83
2025-05-22T16:33:15.388,0.83
2025-05-22T16:33:15.392,0.83
2025-05-22T16:33:15.396,0.83
2025-05-22T16:33:15.400,0.80
2025-05-22T16:33:15.403,0.77
2025-05-22T16:33:15.407,0.74
2025-05-22T16:33:15.411,0.67
2025-05-22T16:33:15.415,0.62
2025-05-22T16:33:15.418,0.56
2025-05-22T16:33:15.422,0.48
2025-05-22T16:33:15.426,0.42
2025-05-22T16:33:15.430,0.36
2025-05-22T16:33:15.433,0.28
2025-05-22T16:33:15.437,0.19
2025-05-22T16:33:15.441,0.11
2025-05-22T16:33:15.445,0.05
2025-05-22T16:33:15.448,-0.01
2025-05-22T16:33:15.452,-0.07
2025-05-22T16:33:15.456,-0.14
2025-05-22T16:33:15.460,-0.20
2025-05-22T16:33:15.463,-0.24
2025-05-22T16:33:15.467,-0.27
2025-05-22T16:33:15.471,-0.29
2025-05-22T16:33:15.475,-0.32
2025-05-22T16:33:15.478,-0.35
2025-05-22T16:33:15.482,-0.37
2025-05-22T16:33:15.486,-0.39
2025-05-22T16:33:15.490,-0.41
2025-05-22T16:33:15.493,-0.41
2025-05-22T16:33:15.497,-0.41
2025-05-22T16:33:15.501,-0.41
2025-05-22T16:33:15.505,-0.41
2025-05-22T16:33:15.508,-0.41
2025-05-22T16:33:15.512,-0.39
2025-05-22T16:33:15.516,-0.39
2025-05-22T16:33:15.520,-0.39
2025-05-22T16:33:15.523,-0.37
2025-05-22T16:33:15.527,-0.36
2025-05-22T16:33:15.531,-0.36
2025-05-22T16:33:15.535,-0.35
2025-05-22T16:33:15.538,-0.33
2025-05-22T16:33:15.538,-0.35
2025-05-22T16:33:15.542,-0.35
2025-05-22T16:33:15.546,-0.34
2025-05-22T16:33:15.549,-0.33
2025-05-22T16:33:15.553,-0.33
2025-05-22T16:33:15.557,-0.32
2025-05-22T16:33:15.561,-0.30
2025-05-22T16:33:15.564,-0.29
2025-05-22T16:33:15.568,-0.28
2025-05-22T16:33:15.572,-0.28
2025-05-22T16:33:15.576,-0.28
2025-05-22T16:33:15.579,-0.28
2025-05-22T16:33:15.583,-0.27
2025-05-22T16:33:15.587,-0.27
2025-05-22T16:33:15.591,-0.26
2025-05-22T16:33:15.594,-0.27
2025-05-22T16:33:15.598,-0.27
2025-05-22T16:33:15.602,-0.27
2025-05-22T16:33:15.606,-0.28
2025-05-22T16:33:15.609,-0.28
2025-05-22T16:33:15.613,-0.30
2025-05-22T16:33:15.617,-0.31
2025-05-22T16:33:15.621,-0.32
2025-05-22T16:33:15.624,-0.31
2025-05-22T16:33:15.628,-0.31
2025-05-22T16:33:15.632,-0.32
2025-05-22T16:33:15.636,-0.33
2025-05-22T16:33:15.639,-0.34
2025-05-22T16:33:15.643,-0.35
2025-05-22T16:33:15.647,-0.34
2025-05-22T16:33:15.651,-0.34
2025-05-22T16:33:15.654,-0.35
2025-05-22T16:33:15.658,-0.35
2025-05-22T16:33:15.662,-0.36
2025-05-22T16:33:15.666,-0.37
2025-05-22T16:33:15.669,-0.38
2025-05-22T16:33:15.673,-0.39
2025-05-22T16:33:15.677,-0.38
2025-05-22T16:33:15.681,-0.39
2025-05-22T16:33:15.684,-0.41
2025-05-22T16:33:15.688,-0.41
2025-05-22T16:33:15.692,-0.40
2025-05-22T16:33:15.696,-0.40
2025-05-22T16:33:15.699,-0.42
2025-05-22T16:33:15.703,-0.43
2025-05-22T16:33:15.707,-0.42
2025-05-22T16:33:15.711,-0.41
2025-05-22T16:33:15.714,-0.42
2025-05-22T16:33:15.718,-0.42
2025-05-22T16:33:15.722,-0.42
2025-05-22T16:33:15.726,-0.41
2025-05-22T16:33:15.729,-0.41
2025-05-22T16:33:15.733,-0.40
2025-05-22T16:33:15.737,-0.37
2025-05-22T16:33:15.741,-0.32
2025-05-22T16:33:15.744,-0.27
2025-05-22T16:33:15.748,-0.24
2025-05-22T16:33:15.752,-0.23
2025-05-22T16:33:15.756,-0.22
2025-05-22T16:33:15.759,-0.19
2025-05-22T16:33:15.763,-0.15
2025-05-22T16:33:15.767,-0.10
2025-05-22T16:33:15.771,-0.06
2025-05-22T16:33:15.774,-0.09
2025-05-22T16:33:15.778,-0.15
2025-05-22T16:33:15.782,-0.19
2025-05-22T16:33:15.785,-0.24
2025-05-22T16:33:15.789,-0.28
2025-05-22T16:33:15.793,-0.34
2025-05-22T16:33:15.797,-0.39
2025-05-22T16:33:15.800,-0.41
2025-05-22T16:33:15.804,-0.45
2025-05-22T16:33:15.808,-0.50
2025-05-22T16:33:15.812,-0.57
2025-05-22T16:33:15.816,-0.59
2025-05-22T16:33:15.819,-0.61
2025-05-22T16:33:15.823,-0.62
2025-05-22T16:33:15.827,-0.62
2025-05-22T16:33:15.830,-0.60
2025-05-22T16:33:15.834,-0.60
2025-05-22T16:33:15.838,-0.61
2025-05-22T16:33:15.842,-0.62
2025-05-22T16:33:15.845,-0.61
2025-05-22T16:33:15.849,-0.60
2025-05-22T16:33:15.853,-0.59
2025-05-22T16:33:15.857,-0.59
2025-05-22T16:33:15.860,-0.59
2025-05-22T16:33:15.864,-0.60
2025-05-22T16:33:15.868,-0.59
2025-05-22T16:33:15.872,-0.59
2025-05-22T16:33:15.875,-0.60
2025-05-22T16:33:15.879,-0.63
2025-05-22T16:33:15.883,-0.60
2025-05-22T16:33:15.887,-0.37
2025-05-22T16:33:15.891,0.05
2025-05-22T16:33:15.894,0.49
2025-05-22T16:33:15.898,0.97
2025-05-22T16:33:15.902,1.50
2025-05-22T16:33:15.906,2.09
2025-05-22T16:33:15.909,2.79
2025-05-22T16:33:15.913,3.13
2025-05-22T16:33:15.917,2.56
2025-05-22T16:33:15.920,0.90
2025-05-22T16:33:15.924,-0.82
2025-05-22T16:33:15.928,-1.65
2025-05-22T16:33:15.932,-1.88
2025-05-22T16:33:15.935,-1.81
2025-05-22T16:33:15.939,-1.73
2025-05-22T16:33:15.943,-1.59
2025-05-22T16:33:15.947,-1.35
2025-05-22T16:33:15.950,-1.02
2025-05-22T16:33:15.954,-0.69
2025-05-22T16:33:15.958,-0.53
2025-05-22T16:33:15.962,-0.50
2025-05-22T16:33:15.965,-0.51
2025-05-22T16:33:15.969,-0.48
2025-05-22T16:33:15.973,-0.46
2025-05-22T16:33:15.977,-0.44
2025-05-22T16:33:15.980,-0.42
2025-05-22T16:33:15.984,-0.40
2025-05-22T16:33:15.988,-0.39
2025-05-22T16:33:15.992,-0.38
2025-05-22T16:33:15.995,-0.36
2025-05-22T16:33:15.999,-0.35
2025-05-22T16:33:16.003,-0.35
2025-05-22T16:33:16.007,-0.34
2025-05-22T16:33:16.010,-0.31
2025-05-22T16:33:16.014,-0.30
2025-05-22T16:33:16.018,-0.31
2025-05-22T16:33:16.022,-0.31
2025-05-22T16:33:16.025,-0.30
2025-05-22T16:33:16.029,-0.29
2025-05-22T16:33:16.033,-0.29
2025-05-22T16:33:16.037,-0.25
2025-05-22T16:33:16.040,-0.23
2025-05-22T16:33:16.044,-0.23
2025-05-22T16:33:16.048,-0.23
2025-05-22T16:33:16.052,-0.21
2025-05-22T16:33:16.055,-0.18
2025-05-22T16:33:16.059,-0.17
2025-05-22T16:33:16.063,-0.16
2025-05-22T16:33:16.067,-0.13
2025-05-22T16:33:16.070,-0.09
2025-05-22T16:33:16.074,-0.06
2025-05-22T16:33:16.078,-0.02
2025-05-22T16:33:16.082,0.02
2025-05-22T16:33:16.085,0.05
2025-05-22T16:33:16.089,0.07
2025-05-22T16:33:16.093,0.09
2025-05-22T16:33:16.097,0.12
2025-05-22T16:33:16.100,0.16
2025-05-22T16:33:16.104,0.18
2025-05-22T16:33:16.108,0.21
2025-05-22T16:33:16.112,0.24
2025-05-22T16:33:16.115,0.27
2025-05-22T16:33:16.119,0.30
2025-05-22T16:33:16.123,0.34
2025-05-22T16:33:16.127,0.38
2025-05-22T16:33:16.130,0.43
2025-05-22T16:33:16.134,0.48
2025-05-22T16:33:16.138,0.51
2025-05-22T16:33:16.142,0.52
2025-05-22T16:33:16.146,0.54
2025-05-22T16:33:16.149,0.56
2025-05-22T16:33:16.153,0.57
2025-05-22T16:33:16.157,0.57
2025-05-22T16:33:16.160,0.56
2025-05-22T16:33:16.164,0.54
2025-05-22T16:33:16.168,0.51
2025-05-22T16:33:16.172,0.49
2025-05-22T16:33:16.175,0.45
2025-05-22T16:33:16.179,0.41
2025-05-22T16:33:16.183,0.34
2025-05-22T16:33:16.187,0.27
2025-05-22T16:33:16.190,0.21
2025-05-22T16:33:16.194,0.13
2025-05-22T16:33:16.198,0.04
2025-05-22T16:33:16.202,-0.04
2025-05-22T16:33:16.205,-0.11
2025-05-22T16:33:16.209,-0.16
2025-05-22T16:33:16.213,-0.22
2025-05-22T16:33:16.217,-0.28
2025-05-22T16:33:16.220,-0.34
2025-05-22T16:33:16.224,-0.38
2025-05-22T16:33:16.228,-0.43
2025-05-22T16:33:16.232,-0.46
2025-05-22T16:33:16.235,-0.49
2025-05-22T16:33:16.239,-0.52
2025-05-22T16:33:16.243,-0.53
2025-05-22T16:33:16.247,-0.54
2025-05-22T16:33:16.250,-0.54
2025-05-22T16:33:16.254,-0.54
2025-05-22T16:33:16.258,-0.54
2025-05-22T16:33:16.262,-0.55
2025-05-22T16:33:16.265,-0.55
2025-05-22T16:33:16.269,-0.54
2025-05-22T16:33:16.273,-0.52
2025-05-22T16:33:16.277,-0.50
2025-05-22T16:33:16.280,-0.49
2025-05-22T16:33:16.284,-0.49
2025-05-22T16:33:16.288,-0.49
2025-05-22T16:33:16.292,-0.48
2025-05-22T16:33:16.295,-0.48
2025-05-22T16:33:16.299,-0.47
2025-05-22T16:33:16.303,-0.46
2025-05-22T16:33:16.307,-0.44
2025-05-22T16:33:16.310,-0.44
2025-05-22T16:33:16.314,-0.44
2025-05-22T16:33:16.318,-0.42
2025-05-22T16:33:16.322,-0.40
2025-05-22T16:33:16.325,-0.39
2025-05-22T16:33:16.329,-0.39
2025-05-22T16:33:16.333,-0.38
2025-05-22T16:33:16.337,-0.37
2025-05-22T16:33:16.340,-0.37
2025-05-22T16:33:16.344,-0.37
2025-05-22T16:33:16.348,-0.36
2025-05-22T16:33:16.352,-0.35
2025-05-22T16:33:16.355,-0.34
2025-05-22T16:33:16.359,-0.34
2025-05-22T16:33:16.363,-0.36
2025-05-22T16:33:16.367,-0.37
2025-05-22T16:33:16.370,-0.36
2025-05-22T16:33:16.374,-0.36
2025-05-22T16:33:16.378,-0.36
2025-05-22T16:33:16.382,-0.37
2025-05-22T16:33:16.385,-0.36
2025-05-22T16:33:16.389,-0.36
2025-05-22T16:33:16.393,-0.36
2025-05-22T16:33:16.397,-0.36
2025-05-22T16:33:16.400,-0.38
2025-05-22T16:33:16.404,-0.39
2025-05-22T16:33:16.408,-0.39
2025-05-22T16:33:16.412,-0.38
2025-05-22T16:33:16.415,-0.39
2025-05-22T16:33:16.419,-0.40
2025-05-22T16:33:16.423,-0.40
2025-05-22T16:33:16.427,-0.40
2025-05-22T16:33:16.430,-0.41
2025-05-22T16:33:16.434,-0.41
2025-05-22T16:33:16.438,-0.41
2025-05-22T16:33:16.442,-0.41
2025-05-22T16:33:16.445,-0.41
2025-05-22T16:33:16.449,-0.41
2025-05-22T16:33:16.453,-0.39
2025-05-22T16:33:16.457,-0.37
2025-05-22T16:33:16.460,-0.37
2025-05-22T16:33:16.464,-0.35
2025-05-22T16:33:16.468,-0.30
2025-05-22T16:33:16.472,-0.26
2025-05-22T16:33:16.475,-0.21
2025-05-22T16:33:16.479,-0.19
2025-05-22T16:33:16.483,-0.18
2025-05-22T16:33:16.487,-0.16
2025-05-22T16:33:16.490,-0.11
2025-05-22T16:33:16.494,-0.05
2025-05-22T16:33:16.498,0.01
2025-05-22T16:33:16.502,0.03
2025-05-22T16:33:16.505,-0.02
2025-05-22T16:33:16.509,-0.07
2025-05-22T16:33:16.513,-0.11
2025-05-22T16:33:16.517,-0.15
2025-05-22T16:33:16.520,-0.21
2025-05-22T16:33:16.524,-0.28
2025-05-22T16:33:16.528,-0.32
2025-05-22T16:33:16.532,-0.35
2025-05-22T16:33:16.535,-0.39
2025-05-22T16:33:16.539,-0.46
2025-05-22T16:33:16.543,-0.51
2025-05-22T16:33:16.547,-0.53
2025-05-22T16:33:16.550,-0.55
2025-05-22T16:33:16.554,-0.54
2025-05-22T16:33:16.558,-0.54
2025-05-22T16:33:16.562,-0.55
2025-05-22T16:33:16.565,-0.54
2025-05-22T16:33:16.569,-0.54
2025-05-22T16:33:16.573,-0.53
2025-05-22T16:33:16.577,-0.52
2025-05-22T16:33:16.580,-0.52
2025-05-22T16:33:16.584,-0.51
2025-05-22T16:33:16.588,-0.51
2025-05-22T16:33:16.592,-0.50
2025-05-22T16:33:16.595,-0.49
2025-05-22T16:33:16.599,-0.49
2025-05-22T16:33:16.603,-0.50
2025-05-22T16:33:16.607,-0.52
2025-05-22T16:33:16.610,-0.53
2025-05-22T16:33:16.614,-0.54
2025-05-22T16:33:16.618,-0.44
2025-05-22T16:33:16.622,-0.14
2025-05-22T16:33:16.625,0.30
2025-05-22T16:33:16.629,0.75
2025-05-22T16:33:16.633,1.27
2025-05-22T16:33:16.637,1.82
2025-05-22T16:33:16.640,2.43
2025-05-22T16:33:16.644,3.03
2025-05-22T16:33:16.648,3.11
2025-05-22T16:33:16.652,2.24
2025-05-22T16:33:16.655,0.44
2025-05-22T16:33:16.659,-1.00
2025-05-22T16:33:16.663,-1.60
2025-05-22T16:33:16.667,-1.69
2025-05-22T16:33:16.670,-1.61
2025-05-22T16:33:16.674,-1.52
2025-05-22T16:33:16.678,-1.33
2025-05-22T16:33:16.682,-1.05
2025-05-22T16:33:16.685,-0.71
2025-05-22T16:33:16.689,-0.45
2025-05-22T16:33:16.693,-0.33
2025-05-22T16:33:16.697,-0.32
2025-05-22T16:33:16.700,-0.33
2025-05-22T16:33:16.704,-0.32
2025-05-22T16:33:16.708,-0.29
2025-05-22T16:33:16.712,-0.26
2025-05-22T16:33:16.715,-0.24
2025-05-22T16:33:16.719,-0.23
2025-05-22T16:33:16.723,-0.22
2025-05-22T16:33:16.727,-0.21
2025-05-22T16:33:16.730,-0.20
2025-05-22T16:33:16.734,-0.18
2025-05-22T16:33:16.738,-0.17
2025-05-22T16:33:16.742,-0.16
2025-05-22T16:33:16.745,-0.15
2025-05-22T16:33:16.749,-0.14
2025-05-22T16:33:16.753,-0.13
2025-05-22T16:33:16.757,-0.10
2025-05-22T16:33:16.760,-0.09
2025-05-22T16:33:16.764,-0.08
2025-05-22T16:33:16.768,-0.07
2025-05-22T16:33:16.772,-0.05
2025-05-22T16:33:16.775,-0.03
2025-05-22T16:33:16.779,-0.01
2025-05-22T16:33:16.783,-0.00
2025-05-22T16:33:16.787,0.00
2025-05-22T16:33:16.790,0.02
2025-05-22T16:33:16.794,0.06
2025-05-22T16:33:16.798,0.08
2025-05-22T16:33:16.802,0.10
2025-05-22T16:33:16.805,0.11
2025-05-22T16:33:16.809,0.13
2025-05-22T16:33:16.813,0.16
2025-05-22T16:33:16.817,0.19
2025-05-22T16:33:16.820,0.21
2025-05-22T16:33:16.824,0.22
2025-05-22T16:33:16.828,0.24
2025-05-22T16:33:16.832,0.28
2025-05-22T16:33:16.835,0.33
2025-05-22T16:33:16.839,0.38
2025-05-22T16:33:16.843,0.41
2025-05-22T16:33:16.847,0.46
2025-05-22T16:33:16.850,0.52
2025-05-22T16:33:16.854,0.58
2025-05-22T16:33:16.858,0.63
2025-05-22T16:33:16.862,0.65
2025-05-22T16:33:16.865,0.69
2025-05-22T16:33:16.869,0.71
2025-05-22T16:33:16.873,0.73
2025-05-22T16:33:16.877,0.75
2025-05-22T16:33:16.880,0.74
2025-05-22T16:33:16.884,0.74
2025-05-22T16:33:16.888,0.75
2025-05-22T16:33:16.892,0.74
2025-05-22T16:33:16.895,0.71
2025-05-22T16:33:16.899,0.69
2025-05-22T16:33:16.903,0.66
2025-05-22T16:33:16.907,0.61
2025-05-22T16:33:16.910,0.57
2025-05-22T16:33:16.914,0.52
2025-05-22T16:33:16.918,0.45
2025-05-22T16:33:16.922,0.37
2025-05-22T16:33:16.925,0.30
2025-05-22T16:33:16.929,0.22
2025-05-22T16:33:16.933,0.15
2025-05-22T16:33:16.937,0.07
2025-05-22T16:33:16.940,0.00
2025-05-22T16:33:16.944,-0.08
2025-05-22T16:33:16.948,-0.14
2025-05-22T16:33:16.952,-0.18
2025-05-22T16:33:16.955,-0.24
2025-05-22T16:33:16.959,-0.29
2025-05-22T16:33:16.963,-0.31
2025-05-22T16:33:16.967,-0.33
2025-05-22T16:33:16.970,-0.36
2025-05-22T16:33:16.974,-0.37
2025-05-22T16:33:16.978,-0.38
2025-05-22T16:33:16.982,-0.40
2025-05-22T16:33:16.985,-0.41
2025-05-22T16:33:16.989,-0.40
2025-05-22T16:33:16.993,-0.40
2025-05-22T16:33:16.997,-0.41
2025-05-22T16:33:17.000,-0.40
2025-05-22T16:33:17.004,-0.40
2025-05-22T16:33:17.008,-0.39
2025-05-22T16:33:17.012,-0.38
2025-05-22T16:33:17.015,-0.37
2025-05-22T16:33:17.019,-0.35
2025-05-22T16:33:17.023,-0.35
2025-05-22T16:33:17.027,-0.34
2025-05-22T16:33:17.030,-0.33
2025-05-22T16:33:17.034,-0.33
2025-05-22T16:33:17.038,-0.32
2025-05-22T16:33:17.042,-0.31
2025-05-22T16:33:17.045,-0.31
2025-05-22T16:33:17.049,-0.30
2025-05-22T16:33:17.053,-0.28
2025-05-22T16:33:17.057,-0.28
2025-05-22T16:33:17.060,-0.28
2025-05-22T16:33:17.064,-0.29
2025-05-22T16:33:17.068,-0.28
2025-05-22T16:33:17.072,-0.27
2025-05-22T16:33:17.075,-0.26
2025-05-22T16:33:17.079,-0.27
2025-05-22T16:33:17.083,-0.28
2025-05-22T16:33:17.087,-0.27
2025-05-22T16:33:17.090,-0.26
2025-05-22T16:33:17.094,-0.27
2025-05-22T16:33:17.098,-0.27
2025-05-22T16:33:17.102,-0.27
2025-05-22T16:33:17.105,-0.27
2025-05-22T16:33:17.109,-0.27
2025-05-22T16:33:17.113,-0.27
2025-05-22T16:33:17.117,-0.26
2025-05-22T16:33:17.120,-0.26
2025-05-22T16:33:17.124,-0.26
2025-05-22T16:33:17.128,-0.27
2025-05-22T16:33:17.132,-0.29
2025-05-22T16:33:17.135,-0.30
2025-05-22T16:33:17.139,-0.31
2025-05-22T16:33:17.143,-0.30
2025-05-22T16:33:17.147,-0.30
2025-05-22T16:33:17.150,-0.29
2025-05-22T16:33:17.154,-0.28
2025-05-22T16:33:17.158,-0.27
2025-05-22T16:33:17.162,-0.24
2025-05-22T16:33:17.165,-0.20
2025-05-22T16:33:17.169,-0.16
2025-05-22T16:33:17.173,-0.12
2025-05-22T16:33:17.177,-0.11
2025-05-22T16:33:17.180,-0.11
2025-05-22T16:33:17.184,-0.10
2025-05-22T16:33:17.188,-0.04
2025-05-22T16:33:17.192,-0.01
2025-05-22T16:33:17.195,0.03
2025-05-22T16:33:17.199,0.06
2025-05-22T16:33:17.203,-0.01
2025-05-22T16:33:17.207,-0.06
2025-05-22T16:33:17.210,-0.08
2025-05-22T16:33:17.214,-0.11
2025-05-22T16:33:17.218,-0.17
2025-05-22T16:33:17.222,-0.24
2025-05-22T16:33:17.225,-0.28
2025-05-22T16:33:17.229,-0.32
2025-05-22T16:33:17.233,-0.38
2025-05-22T16:33:17.237,-0.44
2025-05-22T16:33:17.240,-0.48
2025-05-22T16:33:17.244,-0.49
2025-05-22T16:33:17.248,-0.50
2025-05-22T16:33:17.252,-0.52
2025-05-22T16:33:17.255,-0.53
2025-05-22T16:33:17.259,-0.52
2025-05-22T16:33:17.263,-0.50
2025-05-22T16:33:17.267,-0.49
2025-05-22T16:33:17.270,-0.49
2025-05-22T16:33:17.274,-0.49
2025-05-22T16:33:17.278,-0.49
2025-05-22T16:33:17.282,-0.50
2025-05-22T16:33:17.285,-0.49
2025-05-22T16:33:17.289,-0.47
2025-05-22T16:33:17.293,-0.46
2025-05-22T16:33:17.297,-0.46
2025-05-22T16:33:17.300,-0.48
2025-05-22T16:33:17.304,-0.49
2025-05-22T16:33:17.308,-0.48
2025-05-22T16:33:17.312,-0.51
2025-05-22T16:33:17.315,-0.47
2025-05-22T16:33:17.319,-0.19
2025-05-22T16:33:17.323,0.25
2025-05-22T16:33:17.327,0.69
2025-05-22T16:33:17.330,1.17
2025-05-22T16:33:17.334,1.71
2025-05-22T16:33:17.338,2.27
2025-05-22T16:33:17.342,2.83
2025-05-22T16:33:17.345,2.94
2025-05-22T16:33:17.349,2.21
2025-05-22T16:33:17.353,0.52
2025-05-22T16:33:17.357,-1.00
2025-05-22T16:33:17.360,-1.63
2025-05-22T16:33:17.364,-1.75
2025-05-22T16:33:17.368,-1.62
2025-05-22T16:33:17.372,-1.50
2025-05-22T16:33:17.375,-1.35
2025-05-22T16:33:17.379,-1.12
2025-05-22T16:33:17.383,-0.78
2025-05-22T16:33:17.387,-0.49
2025-05-22T16:33:17.390,-0.34
2025-05-22T16:33:17.394,-0.30
2025-05-22T16:33:17.398,-0.30
2025-05-22T16:33:17.402,-0.30
2025-05-22T16:33:17.405,-0.29
2025-05-22T16:33:17.409,-0.28
2025-05-22T16:33:17.413,-0.27
2025-05-22T16:33:17.417,-0.25
2025-05-22T16:33:17.420,-0.23
2025-05-22T16:33:17.424,-0.21
2025-05-22T16:33:17.428,-0.19
2025-05-22T16:33:17.432,-0.17
2025-05-22T16:33:17.435,-0.14
2025-05-22T16:33:17.439,-0.12
2025-05-22T16:33:17.443,-0.12
2025-05-22T16:33:17.447,-0.14
2025-05-22T16:33:17.450,-0.14
2025-05-22T16:33:17.454,-0.12
2025-05-22T16:33:17.458,-0.09
2025-05-22T16:33:17.462,-0.09
2025-05-22T16:33:17.465,-0.07
2025-05-22T16:33:17.469,-0.05
2025-05-22T16:33:17.473,-0.00
2025-05-22T16:33:17.477,0.02
2025-05-22T16:33:17.480,0.02
2025-05-22T16:33:17.484,0.01
2025-05-22T16:33:17.488,0.01
2025-05-22T16:33:17.492,0.02
2025-05-22T16:33:17.495,0.06
2025-05-22T16:33:17.499,0.10
2025-05-22T16:33:17.503,0.12
2025-05-22T16:33:17.507,0.15
2025-05-22T16:33:17.510,0.18
2025-05-22T16:33:17.514,0.20
2025-05-22T16:33:17.518,0.20
2025-05-22T16:33:17.522,0.22
2025-05-22T16:33:17.525,0.25
2025-05-22T16:33:17.529,0.27
2025-05-22T16:33:17.533,0.32
2025-05-22T16:33:17.537,0.36
2025-05-22T16:33:17.540,0.38
2025-05-22T16:33:17.544,0.42
2025-05-22T16:33:17.548,0.47
2025-05-22T16:33:17.552,0.53
2025-05-22T16:33:17.555,0.57
2025-05-22T16:33:17.559,0.58
2025-05-22T16:33:17.563,0.61
2025-05-22T16:33:17.567,0.67
2025-05-22T16:33:17.570,0.70
2025-05-22T16:33:17.574,0.72
2025-05-22T16:33:17.578,0.75
2025-05-22T16:33:17.582,0.77
2025-05-22T16:33:17.585,0.75
2025-05-22T16:33:17.589,0.74
2025-05-22T16:33:17.593,0.72
2025-05-22T16:33:17.597,0.69
2025-05-22T16:33:17.600,0.64
2025-05-22T16:33:17.604,0.61
2025-05-22T16:33:17.608,0.58
2025-05-22T16:33:17.612,0.52
2025-05-22T16:33:17.615,0.45
2025-05-22T16:33:17.619,0.40
2025-05-22T16:33:17.623,0.31
2025-05-22T16:33:17.627,0.22
2025-05-22T16:33:17.630,0.13
2025-05-22T16:33:17.634,0.06
2025-05-22T16:33:17.638,0.00
2025-05-22T16:33:17.642,-0.05
2025-05-22T16:33:17.645,-0.13
2025-05-22T16:33:17.649,-0.20
2025-05-22T16:33:17.653,-0.24
2025-05-22T16:33:17.657,-0.27
2025-05-22T16:33:17.660,-0.32
2025-05-22T16:33:17.664,-0.37
2025-05-22T16:33:17.668,-0.38
2025-05-22T16:33:17.672,-0.37
2025-05-22T16:33:17.675,-0.37
2025-05-22T16:33:17.679,-0.39
2025-05-22T16:33:17.683,-0.39
2025-05-22T16:33:17.687,-0.39
2025-05-22T16:33:17.690,-0.40
2025-05-22T16:33:17.694,-0.37
2025-05-22T16:33:17.698,-0.37
2025-05-22T16:33:17.702,-0.39
2025-05-22T16:33:17.705,-0.38
2025-05-22T16:33:17.709,-0.35
2025-05-22T16:33:17.713,-0.33
2025-05-22T16:33:17.717,-0.31
2025-05-22T16:33:17.720,-0.29
2025-05-22T16:33:17.724,-0.29
2025-05-22T16:33:17.728,-0.28
2025-05-22T16:33:17.732,-0.27
2025-05-22T16:33:17.735,-0.26
2025-05-22T16:33:17.739,-0.24
2025-05-22T16:33:17.743,-0.23
2025-05-22T16:33:17.747,-0.25
2025-05-22T16:33:17.750,-0.26
2025-05-22T16:33:17.754,-0.27
2025-05-22T16:33:17.758,-0.26
2025-05-22T16:33:17.762,-0.25
2025-05-22T16:33:17.765,-0.24
2025-05-22T16:33:17.769,-0.22
2025-05-22T16:33:17.773,-0.22
2025-05-22T16:33:17.777,-0.24
2025-05-22T16:33:17.780,-0.25
2025-05-22T16:33:17.784,-0.26
2025-05-22T16:33:17.788,-0.25
2025-05-22T16:33:17.792,-0.23
2025-05-22T16:33:17.795,-0.24
2025-05-22T16:33:17.799,-0.29
2025-05-22T16:33:17.803,-0.30
2025-05-22T16:33:17.807,-0.28
2025-05-22T16:33:17.810,-0.25
2025-05-22T16:33:17.814,-0.24
2025-05-22T16:33:17.818,-0.24
2025-05-22T16:33:17.822,-0.24
2025-05-22T16:33:17.825,-0.27
2025-05-22T16:33:17.829,-0.27
2025-05-22T16:33:17.833,-0.23
2025-05-22T16:33:17.837,-0.21
2025-05-22T16:33:17.840,-0.21
2025-05-22T16:33:17.844,-0.20
2025-05-22T16:33:17.848,-0.15
2025-05-22T16:33:17.852,-0.08
2025-05-22T16:33:17.855,-0.04
2025-05-22T16:33:17.859,-0.03
2025-05-22T16:33:17.863,-0.02
2025-05-22T16:33:17.867,0.03
2025-05-22T16:33:17.870,0.08
2025-05-22T16:33:17.874,0.15
2025-05-22T16:33:17.878,0.20
2025-05-22T16:33:17.882,0.15
2025-05-22T16:33:17.885,0.09
2025-05-22T16:33:17.889,0.06
2025-05-22T16:33:17.893,0.01
2025-05-22T16:33:17.897,-0.05
2025-05-22T16:33:17.900,-0.10
2025-05-22T16:33:17.904,-0.13
2025-05-22T16:33:17.908,-0.17
2025-05-22T16:33:17.912,-0.27
2025-05-22T16:33:17.915,-0.33
2025-05-22T16:33:17.919,-0.35
2025-05-22T16:33:17.923,-0.38
2025-05-22T16:33:17.927,-0.39
2025-05-22T16:33:17.930,-0.38
2025-05-22T16:33:17.934,-0.37
2025-05-22T16:33:17.938,-0.36
2025-05-22T16:33:17.942,-0.34
2025-05-22T16:33:17.945,-0.34
2025-05-22T16:33:17.949,-0.35
2025-05-22T16:33:17.953,-0.37
2025-05-22T16:33:17.957,-0.39
2025-05-22T16:33:17.960,-0.37
2025-05-22T16:33:17.964,-0.36
2025-05-22T16:33:17.968,-0.35
2025-05-22T16:33:17.972,-0.36
2025-05-22T16:33:17.975,-0.37
2025-05-22T16:33:17.979,-0.33
2025-05-22T16:33:17.983,-0.31
2025-05-22T16:33:17.987,-0.34
2025-05-22T16:33:17.990,-0.39
2025-05-22T16:33:17.994,-0.36
2025-05-22T16:33:17.998,-0.17
2025-05-22T16:33:18.002,0.23
2025-05-22T16:33:18.005,0.67
2025-05-22T16:33:18.009,1.13
2025-05-22T16:33:18.013,1.63
2025-05-22T16:33:18.017,2.18
2025-05-22T16:33:18.020,2.79
2025-05-22T16:33:18.024,3.08
2025-05-22T16:33:18.028,2.46
2025-05-22T16:33:18.032,0.90
2025-05-22T16:33:18.035,-0.67
2025-05-22T16:33:18.039,-1.34
2025-05-22T16:33:18.043,-1.48
2025-05-22T16:33:18.047,-1.39
2025-05-22T16:33:18.050,-1.32
2025-05-22T16:33:18.054,-1.24
2025-05-22T16:33:18.058,-1.07
2025-05-22T16:33:18.062,-0.79
2025-05-22T16:33:18.065,-0.46
2025-05-22T16:33:18.069,-0.21
2025-05-22T16:33:18.073,-0.11
2025-05-22T16:33:18.077,-0.10
2025-05-22T16:33:18.080,-0.10
2025-05-22T16:33:18.084,-0.10
2025-05-22T16:33:18.088,-0.08
2025-05-22T16:33:18.092,-0.03
2025-05-22T16:33:18.095,0.00
2025-05-22T16:33:18.099,0.02
2025-05-22T16:33:18.103,0.02
2025-05-22T16:33:18.107,0.02
2025-05-22T16:33:18.110,0.05
2025-05-22T16:33:18.114,0.07
2025-05-22T16:33:18.118,0.08
2025-05-22T16:33:18.122,0.08
2025-05-22T16:33:18.125,0.08
2025-05-22T16:33:18.129,0.10
2025-05-22T16:33:18.133,0.09
2025-05-22T16:33:18.137,0.11
2025-05-22T16:33:18.140,0.13
2025-05-22T16:33:18.144,0.15
2025-05-22T16:33:18.148,0.17
2025-05-22T16:33:18.152,0.18
2025-05-22T16:33:18.155,0.19
2025-05-22T16:33:18.159,0.19
2025-05-22T16:33:18.163,0.19
2025-05-22T16:33:18.167,0.21
2025-05-22T16:33:18.170,0.23
2025-05-22T16:33:18.174,0.26
2025-05-22T16:33:18.178,0.28
2025-05-22T16:33:18.182,0.31
2025-05-22T16:33:18.185,0.33
2025-05-22T16:33:18.189,0.34
2025-05-22T16:33:18.193,0.35
2025-05-22T16:33:18.197,0.36
2025-05-22T16:33:18.200,0.39
2025-05-22T16:33:18.204,0.44
2025-05-22T16:33:18.208,0.47
2025-05-22T16:33:18.212,0.50
2025-05-22T16:33:18.215,0.53
2025-05-22T16:33:18.219,0.57
2025-05-22T16:33:18.223,0.60
2025-05-22T16:33:18.227,0.62
2025-05-22T16:33:18.230,0.65
2025-05-22T16:33:18.234,0.70
2025-05-22T16:33:18.238,0.74
2025-05-22T16:33:18.242,0.77
2025-05-22T16:33:18.245,0.81
2025-05-22T16:33:18.249,0.84
2025-05-22T16:33:18.253,0.87
2025-05-22T16:33:18.257,0.88
2025-05-22T16:33:18.260,0.87
2025-05-22T16:33:18.264,0.85
2025-05-22T16:33:18.268,0.83
2025-05-22T16:33:18.272,0.83
2025-05-22T16:33:18.275,0.81
2025-05-22T16:33:18.279,0.77
2025-05-22T16:33:18.283,0.73
2025-05-22T16:33:18.283,0.68
2025-05-22T16:33:18.283,0.66
2025-05-22T16:33:18.283,0.60
2025-05-22T16:33:18.283,0.52
2025-05-22T16:33:18.287,0.44
2025-05-22T16:33:18.290,0.35
2025-05-22T16:33:18.294,0.27
2025-05-22T16:33:18.298,0.20
2025-05-22T16:33:18.302,0.12
2025-05-22T16:33:18.305,0.05
2025-05-22T16:33:18.309,-0.01
2025-05-22T16:33:18.313,-0.07
2025-05-22T16:33:18.317,-0.13
2025-05-22T16:33:18.320,-0.16
2025-05-22T16:33:18.324,-0.18
2025-05-22T16:33:18.328,-0.21
2025-05-22T16:33:18.332,-0.25
2025-05-22T16:33:18.335,-0.29
2025-05-22T16:33:18.339,-0.29
2025-05-22T16:33:18.343,-0.29
2025-05-22T16:33:18.347,-0.30
2025-05-22T16:33:18.350,-0.31
2025-05-22T16:33:18.354,-0.31
2025-05-22T16:33:18.358,-0.32
2025-05-22T16:33:18.362,-0.31
2025-05-22T16:33:18.365,-0.31
2025-05-22T16:33:18.369,-0.31
2025-05-22T16:33:18.373,-0.31
2025-05-22T16:33:18.377,-0.30
2025-05-22T16:33:18.380,-0.28
2025-05-22T16:33:18.384,-0.27
2025-05-22T16:33:18.388,-0.26
2025-05-22T16:33:18.392,-0.26
2025-05-22T16:33:18.395,-0.26
2025-05-22T16:33:18.399,-0.25
2025-05-22T16:33:18.403,-0.23
2025-05-22T16:33:18.407,-0.22
2025-05-22T16:33:18.410,-0.22
2025-05-22T16:33:18.414,-0.22
2025-05-22T16:33:18.418,-0.18
2025-05-22T16:33:18.422,-0.16
2025-05-22T16:33:18.425,-0.17
2025-05-22T16:33:18.429,-0.21
2025-05-22T16:33:18.433,-0.22
2025-05-22T16:33:18.437,-0.22
2025-05-22T16:33:18.440,-0.21
2025-05-22T16:33:18.444,-0.21
2025-05-22T16:33:18.448,-0.22
2025-05-22T16:33:18.452,-0.23
2025-05-22T16:33:18.455,-0.24
2025-05-22T16:33:18.459,-0.27
2025-05-22T16:33:18.463,-0.28
2025-05-22T16:33:18.467,-0.27
2025-05-22T16:33:18.470,-0.27
2025-05-22T16:33:18.474,-0.26
2025-05-22T16:33:18.478,-0.24
2025-05-22T16:33:18.482,-0.23
2025-05-22T16:33:18.485,-0.23
2025-05-22T16:33:18.489,-0.21
2025-05-22T16:33:18.493,-0.18
2025-05-22T16:33:18.497,-0.13
2025-05-22T16:33:18.500,-0.08
2025-05-22T16:33:18.504,-0.05
2025-05-22T16:33:18.508,-0.05
2025-05-22T16:33:18.512,-0.02
2025-05-22T16:33:18.515,0.04
2025-05-22T16:33:18.519,0.09
2025-05-22T16:33:18.523,0.15
2025-05-22T16:33:18.527,0.15
2025-05-22T16:33:18.530,0.08
2025-05-22T16:33:18.534,0.05
2025-05-22T16:33:18.538,0.02
2025-05-22T16:33:18.542,-0.02
2025-05-22T16:33:18.545,-0.07
2025-05-22T16:33:18.549,-0.14
2025-05-22T16:33:18.553,-0.21
2025-05-22T16:33:18.557,-0.25
2025-05-22T16:33:18.560,-0.31
2025-05-22T16:33:18.564,-0.37
2025-05-22T16:33:18.568,-0.40
2025-05-22T16:33:18.572,-0.42
2025-05-22T16:33:18.575,-0.43
2025-05-22T16:33:18.579,-0.42
2025-05-22T16:33:18.583,-0.43
2025-05-22T16:33:18.587,-0.44
2025-05-22T16:33:18.590,-0.44
2025-05-22T16:33:18.594,-0.43
2025-05-22T16:33:18.598,-0.42
2025-05-22T16:33:18.602,-0.41
2025-05-22T16:33:18.605,-0.41
2025-05-22T16:33:18.609,-0.42
2025-05-22T16:33:18.613,-0.42
2025-05-22T16:33:18.617,-0.42
2025-05-22T16:33:18.620,-0.43
2025-05-22T16:33:18.624,-0.42
2025-05-22T16:33:18.628,-0.41
2025-05-22T16:33:18.632,-0.42
2025-05-22T16:33:18.635,-0.44
2025-05-22T16:33:18.639,-0.47
2025-05-22T16:33:18.643,-0.46
2025-05-22T16:33:18.647,-0.24
2025-05-22T16:33:18.650,0.16
2025-05-22T16:33:18.654,0.60
2025-05-22T16:33:18.658,1.09
2025-05-22T16:33:18.662,1.64
2025-05-22T16:33:18.665,2.22
2025-05-22T16:33:18.669,2.86
2025-05-22T16:33:18.673,3.06
2025-05-22T16:33:18.677,2.31
2025-05-22T16:33:18.680,0.60
2025-05-22T16:33:18.684,-0.91
2025-05-22T16:33:18.688,-1.50
2025-05-22T16:33:18.692,-1.62
2025-05-22T16:33:18.695,-1.52
2025-05-22T16:33:18.699,-1.43
2025-05-22T16:33:18.703,-1.29
2025-05-22T16:33:18.707,-1.10
2025-05-22T16:33:18.710,-0.83
2025-05-22T16:33:18.714,-0.52
2025-05-22T16:33:18.718,-0.33
2025-05-22T16:33:18.722,-0.27
2025-05-22T16:33:18.725,-0.25
2025-05-22T16:33:18.729,-0.25
2025-05-22T16:33:18.733,-0.25
2025-05-22T16:33:18.737,-0.25
2025-05-22T16:33:18.740,-0.23
2025-05-22T16:33:18.744,-0.20
2025-05-22T16:33:18.748,-0.18
2025-05-22T16:33:18.752,-0.19
2025-05-22T16:33:18.755,-0.19
2025-05-22T16:33:18.759,-0.17
2025-05-22T16:33:18.763,-0.15
2025-05-22T16:33:18.767,-0.15
2025-05-22T16:33:18.770,-0.14
2025-05-22T16:33:18.774,-0.14
2025-05-22T16:33:18.778,-0.13
2025-05-22T16:33:18.782,-0.11
2025-05-22T16:33:18.785,-0.10
2025-05-22T16:33:18.789,-0.09
2025-05-22T16:33:18.793,-0.09
2025-05-22T16:33:18.797,-0.07
2025-05-22T16:33:18.800,-0.05
2025-05-22T16:33:18.804,-0.03
2025-05-22T16:33:18.808,-0.01
2025-05-22T16:33:18.812,0.02
2025-05-22T16:33:18.815,0.04
2025-05-22T16:33:18.819,0.05
2025-05-22T16:33:18.823,0.07
2025-05-22T16:33:18.827,0.07
2025-05-22T16:33:18.830,0.08
2025-05-22T16:33:18.834,0.11
2025-05-22T16:33:18.838,0.13
2025-05-22T16:33:18.842,0.15
2025-05-22T16:33:18.845,0.17
2025-05-22T16:33:18.849,0.19
2025-05-22T16:33:18.853,0.21
2025-05-22T16:33:18.857,0.24
2025-05-22T16:33:18.860,0.28
2025-05-22T16:33:18.864,0.30
2025-05-22T16:33:18.868,0.33
2025-05-22T16:33:18.872,0.36
2025-05-22T16:33:18.875,0.39
2025-05-22T16:33:18.879,0.42
2025-05-22T16:33:18.883,0.45
2025-05-22T16:33:18.887,0.47
2025-05-22T16:33:18.890,0.50
2025-05-22T16:33:18.894,0.53
2025-05-22T16:33:18.898,0.56
2025-05-22T16:33:18.898,0.65
2025-05-22T16:33:18.898,0.65
2025-05-22T16:33:18.898,0.63
2025-05-22T16:33:18.898,0.62
2025-05-22T16:33:18.898,0.60
2025-05-22T16:33:18.898,0.60
2025-05-22T16:33:18.898,0.58
2025-05-22T16:33:18.898,0.55
2025-05-22T16:33:18.898,0.51
2025-05-22T16:33:18.898,0.47
2025-05-22T16:33:18.898,0.42
2025-05-22T16:33:18.898,0.35
2025-05-22T16:33:18.898,0.28
2025-05-22T16:33:18.898,0.20
2025-05-22T16:33:18.898,0.14
2025-05-22T16:33:18.898,0.09
2025-05-22T16:33:18.898,0.03
2025-05-22T16:33:18.898,-0.04
2025-05-22T16:33:18.898,-0.11
2025-05-22T16:33:18.898,-0.17
2025-05-22T16:33:18.898,-0.21
2025-05-22T16:33:18.898,-0.24
2025-05-22T16:33:18.898,-0.28
2025-05-22T16:33:18.898,-0.31
2025-05-22T16:33:18.898,-0.34
2025-05-22T16:33:18.898,-0.36
2025-05-22T16:33:18.898,-0.37
2025-05-22T16:33:18.898,-0.36
2025-05-22T16:33:18.898,-0.36
2025-05-22T16:33:18.898,-0.36
2025-05-22T16:33:18.898,-0.36
2025-05-22T16:33:18.898,-0.42
2025-05-22T16:33:18.898,-0.42
2025-05-22T16:33:18.898,-0.42
2025-05-22T16:33:18.898,-0.42
2025-05-22T16:33:18.898,-0.42
2025-05-22T16:33:18.898,-0.42
2025-05-22T16:33:18.898,-0.42
2025-05-22T16:33:18.898,-0.43
2025-05-22T16:33:18.898,-0.44
2025-05-22T16:33:18.898,-0.44
2025-05-22T16:33:18.898,-0.45
2025-05-22T16:33:18.898,-0.45
2025-05-22T16:33:18.898,-0.42
2025-05-22T16:33:18.898,-0.40
2025-05-22T16:33:18.898,-0.37
2025-05-22T16:33:18.898,-0.37
2025-05-22T16:33:18.898,-0.35
2025-05-22T16:33:18.898,-0.30
2025-05-22T16:33:18.898,-0.23
2025-05-22T16:33:18.898,-0.17
2025-05-22T16:33:18.898,-0.12
2025-05-22T16:33:18.898,-0.09
2025-05-22T16:33:18.898,-0.09
2025-05-22T16:33:18.898,-0.09
2025-05-22T16:33:18.898,-0.11
2025-05-22T16:33:18.898,-0.13
2025-05-22T16:33:18.898,-0.19
2025-05-22T16:33:18.898,-0.27
2025-05-22T16:33:18.898,-0.33
2025-05-22T16:33:18.898,-0.35
2025-05-22T16:33:18.898,-0.39
2025-05-22T16:33:18.898,-0.43
2025-05-22T16:33:18.898,-0.48
2025-05-22T16:33:18.898,-0.53
2025-05-22T16:33:18.898,-0.56
2025-05-22T16:33:18.898,-0.57
2025-05-22T16:33:18.898,-0.57
2025-05-22T16:33:18.898,-0.57
2025-05-22T16:33:18.898,-0.57
2025-05-22T16:33:18.898,-0.56
2025-05-22T16:33:18.898,-0.56
2025-05-22T16:33:18.898,-0.57
2025-05-22T16:33:18.898,-0.57
2025-05-22T16:33:18.898,-0.57
2025-05-22T16:33:18.898,-0.56
2025-05-22T16:33:18.898,-0.55
2025-05-22T16:33:18.898,-0.56
2025-05-22T16:33:18.898,-0.57
2025-05-22T16:33:18.898,-0.56
2025-05-22T16:33:18.898,-0.57
2025-05-22T16:33:18.898,-0.58
2025-05-22T16:33:18.898,-0.60
2025-05-22T16:33:18.898,-0.59
2025-05-22T16:33:18.898,-0.39
2025-05-22T16:33:18.898,-0.02
2025-05-22T16:33:18.898,0.38
2025-05-22T16:33:18.898,0.81
2025-05-22T16:33:18.898,1.33
2025-05-22T16:33:18.898,1.94
2025-05-22T16:33:18.898,2.62
2025-05-22T16:33:18.898,3.02
2025-05-22T16:33:18.898,2.67
2025-05-22T16:33:18.898,1.32
2025-05-22T16:33:18.898,-0.33
2025-05-22T16:33:18.898,-1.26
2025-05-22T16:33:18.898,-1.60
2025-05-22T16:33:18.898,-1.58
2025-05-22T16:33:18.898,-1.49
2025-05-22T16:33:18.898,-1.37
2025-05-22T16:33:18.898,-1.16
2025-05-22T16:33:18.898,-0.86
2025-05-22T16:33:18.898,-0.56
2025-05-22T16:33:18.898,-0.42
2025-05-22T16:33:18.898,-0.40
2025-05-22T16:33:18.898,-0.40
2025-05-22T16:33:18.898,-0.39
2025-05-22T16:33:18.898,-0.36
2025-05-22T16:33:18.898,-0.34
2025-05-22T16:33:18.898,-0.34
2025-05-22T16:33:18.898,-0.33
2025-05-22T16:33:18.898,-0.31
2025-05-22T16:33:18.898,-0.28
2025-05-22T16:33:18.898,-0.26
2025-05-22T16:33:18.898,-0.26
2025-05-22T16:33:18.898,-0.26
2025-05-22T16:33:18.898,-0.24
2025-05-22T16:33:18.898,-0.22
2025-05-22T16:33:18.898,-0.20
2025-05-22T16:33:18.898,-0.19
2025-05-22T16:33:18.898,-0.17
2025-05-22T16:33:18.898,-0.15
2025-05-22T16:33:18.898,-0.14
2025-05-22T16:33:18.898,-0.11
2025-05-22T16:33:18.898,-0.10
2025-05-22T16:33:18.898,-0.10
2025-05-22T16:33:18.898,-0.08
2025-05-22T16:33:18.898,-0.06
2025-05-22T16:33:18.898,-0.04
2025-05-22T16:33:18.898,-0.00
2025-05-22T16:33:18.898,0.01
2025-05-22T16:33:18.898,0.03
2025-05-22T16:33:18.898,0.05
2025-05-22T16:33:18.898,0.07
2025-05-22T16:33:18.898,0.09
2025-05-22T16:33:18.898,0.11
2025-05-22T16:33:18.898,0.15
2025-05-22T16:33:18.898,0.19
2025-05-22T16:33:18.898,0.20
2025-05-22T16:33:18.898,0.23
2025-05-22T16:33:18.898,0.25
2025-05-22T16:33:18.898,0.26
2025-05-22T16:33:18.898,0.28
2025-05-22T16:33:18.898,0.33
2025-05-22T16:33:18.898,0.37
2025-05-22T16:33:18.898,0.41
2025-05-22T16:33:18.898,0.43
2025-05-22T16:33:18.898,0.46
2025-05-22T16:33:18.898,0.51
2025-05-22T16:33:18.898,0.55
2025-05-22T16:33:18.898,0.59
2025-05-22T16:33:18.898,0.62
2025-05-22T16:33:18.898,0.62
2025-05-22T16:33:18.898,0.61
2025-05-22T16:33:18.898,0.62
2025-05-22T16:33:18.898,0.64
2025-05-22T16:33:18.898,0.64
2025-05-22T16:33:18.898,0.62
2025-05-22T16:33:18.898,0.62
2025-05-22T16:33:18.898,0.61
2025-05-22T16:33:18.898,0.58
2025-05-22T16:33:18.898,0.55
2025-05-22T16:33:18.898,0.51
2025-05-22T16:33:18.898,0.48
2025-05-22T16:33:18.898,0.44
2025-05-22T16:33:18.898,0.40
2025-05-22T16:33:18.898,0.35
2025-05-22T16:33:18.898,0.29
2025-05-22T16:33:18.898,0.25
2025-05-22T16:33:18.898,0.19
2025-05-22T16:33:18.898,0.14
2025-05-22T16:33:18.898,0.09
2025-05-22T16:33:18.898,0.05
2025-05-22T16:33:18.898,0.02
2025-05-22T16:33:18.898,-0.02
2025-05-22T16:33:18.898,-0.06
2025-05-22T16:33:18.898,-0.08
2025-05-22T16:33:18.898,-0.09
2025-05-22T16:33:18.898,-0.10
2025-05-22T16:33:18.898,-0.10
2025-05-22T16:33:18.898,-0.11
2025-05-22T16:33:18.898,-0.13
2025-05-22T16:33:18.898,-0.14
2025-05-22T16:33:18.898,-0.15
2025-05-22T16:33:18.898,-0.15
2025-05-22T16:33:18.898,-0.16
2025-05-22T16:33:18.898,-0.17
2025-05-22T16:33:18.898,-0.16
2025-05-22T16:33:18.898,-0.13
2025-05-22T16:33:18.898,-0.10
2025-05-22T16:33:18.898,-0.10
2025-05-22T16:33:18.898,-0.11
2025-05-22T16:33:18.898,-0.12
2025-05-22T16:33:18.898,-0.10
2025-05-22T16:33:18.898,-0.10
2025-05-22T16:33:18.898,-0.08
2025-05-22T16:33:18.898,-0.08
2025-05-22T16:33:18.898,-0.08
2025-05-22T16:33:18.898,-0.07
2025-05-22T16:33:18.898,-0.08
2025-05-22T16:33:18.898,-0.09
2025-05-22T16:33:18.898,-0.10
2025-05-22T16:33:18.898,-0.11
2025-05-22T16:33:18.898,-0.11
2025-05-22T16:33:18.898,-0.10
2025-05-22T16:33:18.898,-0.11
2025-05-22T16:33:18.898,-0.12
2025-05-22T16:33:18.898,-0.11
2025-05-22T16:33:18.898,-0.11
2025-05-22T16:33:18.898,-0.14
2025-05-22T16:33:18.898,-0.17
2025-05-22T16:33:18.898,-0.17
2025-05-22T16:33:18.898,-0.16
2025-05-22T16:33:18.898,-0.16
2025-05-22T16:33:18.898,-0.15
2025-05-22T16:33:18.902,-0.19
2025-05-22T16:33:18.906,-0.22
2025-05-22T16:33:18.910,-0.23
2025-05-22T16:33:18.913,-0.24
2025-05-22T16:33:18.917,-0.24
2025-05-22T16:33:18.921,-0.23
2025-05-22T16:33:18.925,-0.24
2025-05-22T16:33:18.928,-0.26
2025-05-22T16:33:18.932,-0.25
2025-05-22T16:33:18.936,-0.26
2025-05-22T16:33:18.940,-0.28
2025-05-22T16:33:18.943,-0.27
2025-05-22T16:33:18.947,-0.28
2025-05-22T16:33:18.951,-0.29
2025-05-22T16:33:18.955,-0.29
2025-05-22T16:33:18.958,-0.28
2025-05-22T16:33:18.962,-0.30
2025-05-22T16:33:18.966,-0.32
2025-05-22T16:33:18.970,-0.33
2025-05-22T16:33:18.973,-0.30
2025-05-22T16:33:18.977,-0.30
2025-05-22T16:33:18.981,-0.32
2025-05-22T16:33:18.985,-0.33
2025-05-22T16:33:18.988,-0.32
2025-05-22T16:33:18.992,-0.31
2025-05-22T16:33:18.996,-0.30
2025-05-22T16:33:19.000,-0.29
2025-05-22T16:33:19.003,-0.29
2025-05-22T16:33:19.007,-0.30
2025-05-22T16:33:19.011,-0.32
2025-05-22T16:33:19.015,-0.32
2025-05-22T16:33:19.018,-0.31
2025-05-22T16:33:19.022,-0.32
2025-05-22T16:33:19.026,-0.33
2025-05-22T16:33:19.030,-0.34
2025-05-22T16:33:19.033,-0.32
2025-05-22T16:33:19.037,-0.32
2025-05-22T16:33:19.041,-0.32
2025-05-22T16:33:19.045,-0.32
2025-05-22T16:33:19.048,-0.31
2025-05-22T16:33:19.052,-0.32
2025-05-22T16:33:19.056,-0.33
2025-05-22T16:33:19.060,-0.34
2025-05-22T16:33:19.063,-0.36
2025-05-22T16:33:19.067,-0.35
2025-05-22T16:33:19.071,-0.32
2025-05-22T16:33:19.075,-0.30
2025-05-22T16:33:19.078,-0.31
2025-05-22T16:33:19.082,-0.33
2025-05-22T16:33:19.086,-0.34
2025-05-22T16:33:19.090,-0.35
2025-05-22T16:33:19.093,-0.34
2025-05-22T16:33:19.097,-0.33
2025-05-22T16:33:19.101,-0.32
2025-05-22T16:33:19.105,-0.33
2025-05-22T16:33:19.108,-0.33
2025-05-22T16:33:19.112,-0.35
2025-05-22T16:33:19.116,-0.35
2025-05-22T16:33:19.120,-0.34
2025-05-22T16:33:19.123,-0.32
2025-05-22T16:33:19.127,-0.32
2025-05-22T16:33:19.131,-0.33
2025-05-22T16:33:19.135,-0.35
2025-05-22T16:33:19.138,-0.34
2025-05-22T16:33:19.142,-0.34
2025-05-22T16:33:19.146,-0.35
2025-05-22T16:33:19.150,-0.36
2025-05-22T16:33:19.153,-0.36
2025-05-22T16:33:19.157,-0.34
2025-05-22T16:33:19.161,-0.32
2025-05-22T16:33:19.165,-0.33
2025-05-22T16:33:19.168,-0.36
2025-05-22T16:33:19.172,-0.37
2025-05-22T16:33:19.176,-0.35
2025-05-22T16:33:19.180,-0.33
2025-05-22T16:33:19.183,-0.31
2025-05-22T16:33:19.187,-0.32
2025-05-22T16:33:19.191,-0.34
2025-05-22T16:33:19.195,-0.36
2025-05-22T16:33:19.198,-0.34
2025-05-22T16:33:19.202,-0.34
2025-05-22T16:33:19.206,-0.35
2025-05-22T16:33:19.210,-0.36
2025-05-22T16:33:19.213,-0.34
2025-05-22T16:33:19.217,-0.30
2025-05-22T16:33:19.221,-0.27
2025-05-22T16:33:19.225,-0.25
2025-05-22T16:33:19.228,-0.24
2025-05-22T16:33:19.232,-0.23
2025-05-22T16:33:19.236,-0.18
2025-05-22T16:33:19.240,-0.12
2025-05-22T16:33:19.243,-0.09
2025-05-22T16:33:19.247,-0.07
2025-05-22T16:33:19.251,-0.04
2025-05-22T16:33:19.255,-0.03
2025-05-22T16:33:19.258,-0.01
2025-05-22T16:33:19.262,-0.01
2025-05-22T16:33:19.266,-0.06
2025-05-22T16:33:19.270,-0.13
2025-05-22T16:33:19.273,-0.19
2025-05-22T16:33:19.277,-0.22
2025-05-22T16:33:19.281,-0.24
2025-05-22T16:33:19.285,-0.28
2025-05-22T16:33:19.288,-0.32
2025-05-22T16:33:19.292,-0.37
2025-05-22T16:33:19.296,-0.41
2025-05-22T16:33:19.300,-0.44
2025-05-22T16:33:19.303,-0.46
2025-05-22T16:33:19.307,-0.47
2025-05-22T16:33:19.311,-0.46
2025-05-22T16:33:19.315,-0.44
2025-05-22T16:33:19.318,-0.43
2025-05-22T16:33:19.322,-0.43
2025-05-22T16:33:19.326,-0.44
2025-05-22T16:33:19.330,-0.44
2025-05-22T16:33:19.333,-0.43
2025-05-22T16:33:19.337,-0.42
2025-05-22T16:33:19.341,-0.42
2025-05-22T16:33:19.345,-0.41
2025-05-22T16:33:19.348,-0.42
2025-05-22T16:33:19.352,-0.45
2025-05-22T16:33:19.356,-0.48
2025-05-22T16:33:19.360,-0.49
2025-05-22T16:33:19.363,-0.33
2025-05-22T16:33:19.367,0.04
2025-05-22T16:33:19.371,0.43
2025-05-22T16:33:19.375,0.83
2025-05-22T16:33:19.378,1.32
2025-05-22T16:33:19.382,1.88
2025-05-22T16:33:19.386,2.57
2025-05-22T16:33:19.390,3.05
2025-05-22T16:33:19.393,2.75
2025-05-22T16:33:19.397,1.34
2025-05-22T16:33:19.401,-0.41
2025-05-22T16:33:19.405,-1.28
2025-05-22T16:33:19.408,-1.53
2025-05-22T16:33:19.412,-1.43
2025-05-22T16:33:19.416,-1.29
2025-05-22T16:33:19.420,-1.23
2025-05-22T16:33:19.423,-1.10
2025-05-22T16:33:19.427,-0.88
2025-05-22T16:33:19.431,-0.60
2025-05-22T16:33:19.435,-0.39
2025-05-22T16:33:19.438,-0.29
2025-05-22T16:33:19.442,-0.28
2025-05-22T16:33:19.446,-0.28
2025-05-22T16:33:19.450,-0.27
2025-05-22T16:33:19.453,-0.25
2025-05-22T16:33:19.457,-0.22
2025-05-22T16:33:19.461,-0.21
2025-05-22T16:33:19.465,-0.19
2025-05-22T16:33:19.468,-0.17
2025-05-22T16:33:19.472,-0.16
2025-05-22T16:33:19.476,-0.14
2025-05-22T16:33:19.480,-0.13
2025-05-22T16:33:19.483,-0.12
2025-05-22T16:33:19.487,-0.11
2025-05-22T16:33:19.491,-0.09
2025-05-22T16:33:19.495,-0.08
2025-05-22T16:33:19.498,-0.07
2025-05-22T16:33:19.502,-0.06
2025-05-22T16:33:19.506,-0.04
2025-05-22T16:33:19.510,-0.02
2025-05-22T16:33:19.513,-0.01
2025-05-22T16:33:19.517,0.00
2025-05-22T16:33:19.521,0.01
2025-05-22T16:33:19.525,0.02
2025-05-22T16:33:19.528,0.04
2025-05-22T16:33:19.532,0.06
2025-05-22T16:33:19.536,0.07
2025-05-22T16:33:19.540,0.09
2025-05-22T16:33:19.543,0.11
2025-05-22T16:33:19.547,0.12
2025-05-22T16:33:19.551,0.13
2025-05-22T16:33:19.555,0.15
2025-05-22T16:33:19.558,0.18
2025-05-22T16:33:19.562,0.21
2025-05-22T16:33:19.566,0.22
2025-05-22T16:33:19.570,0.24
2025-05-22T16:33:19.573,0.27
2025-05-22T16:33:19.577,0.30
2025-05-22T16:33:19.581,0.33
2025-05-22T16:33:19.585,0.36
2025-05-22T16:33:19.588,0.38
2025-05-22T16:33:19.592,0.41
2025-05-22T16:33:19.596,0.44
2025-05-22T16:33:19.600,0.46
2025-05-22T16:33:19.603,0.48
2025-05-22T16:33:19.607,0.51
2025-05-22T16:33:19.611,0.53
2025-05-22T16:33:19.615,0.57
2025-05-22T16:33:19.618,0.58
2025-05-22T16:33:19.622,0.58
2025-05-22T16:33:19.626,0.58
2025-05-22T16:33:19.630,0.58
2025-05-22T16:33:19.633,0.56
2025-05-22T16:33:19.637,0.55
2025-05-22T16:33:19.641,0.54
2025-05-22T16:33:19.645,0.51
2025-05-22T16:33:19.648,0.48
2025-05-22T16:33:19.652,0.46
2025-05-22T16:33:19.656,0.43
2025-05-22T16:33:19.660,0.39
2025-05-22T16:33:19.663,0.34
2025-05-22T16:33:19.667,0.28
2025-05-22T16:33:19.671,0.23
2025-05-22T16:33:19.675,0.19
2025-05-22T16:33:19.678,0.15
2025-05-22T16:33:19.682,0.11
2025-05-22T16:33:19.686,0.06
2025-05-22T16:33:19.690,0.02
2025-05-22T16:33:19.693,-0.00
2025-05-22T16:33:19.697,-0.02
2025-05-22T16:33:19.701,-0.05
2025-05-22T16:33:19.705,-0.08
2025-05-22T16:33:19.708,-0.10
2025-05-22T16:33:19.712,-0.12
2025-05-22T16:33:19.716,-0.14
2025-05-22T16:33:19.720,-0.16
2025-05-22T16:33:19.723,-0.18
2025-05-22T16:33:19.727,-0.21
2025-05-22T16:33:19.731,-0.22
2025-05-22T16:33:19.735,-0.22
2025-05-22T16:33:19.738,-0.21
2025-05-22T16:33:19.742,-0.21
2025-05-22T16:33:19.746,-0.22
2025-05-22T16:33:19.750,-0.23
2025-05-22T16:33:19.753,-0.22
2025-05-22T16:33:19.757,-0.21
2025-05-22T16:33:19.761,-0.20
2025-05-22T16:33:19.765,-0.20
2025-05-22T16:33:19.768,-0.20
2025-05-22T16:33:19.772,-0.19
2025-05-22T16:33:19.776,-0.18
2025-05-22T16:33:19.780,-0.17
2025-05-22T16:33:19.783,-0.17
2025-05-22T16:33:19.787,-0.16
2025-05-22T16:33:19.791,-0.16
2025-05-22T16:33:19.795,-0.16
2025-05-22T16:33:19.798,-0.15
2025-05-22T16:33:19.802,-0.15
2025-05-22T16:33:19.806,-0.15
2025-05-22T16:33:19.810,-0.16
2025-05-22T16:33:19.813,-0.17
2025-05-22T16:33:19.817,-0.16
2025-05-22T16:33:19.821,-0.16
2025-05-22T16:33:19.825,-0.17
2025-05-22T16:33:19.828,-0.19
2025-05-22T16:33:19.832,-0.20
2025-05-22T16:33:19.836,-0.19
2025-05-22T16:33:19.840,-0.19
2025-05-22T16:33:19.843,-0.21
2025-05-22T16:33:19.847,-0.23
2025-05-22T16:33:19.851,-0.22
2025-05-22T16:33:19.855,-0.22
2025-05-22T16:33:19.858,-0.22
2025-05-22T16:33:19.862,-0.23
2025-05-22T16:33:19.866,-0.22
2025-05-22T16:33:19.870,-0.22
2025-05-22T16:33:19.873,-0.22
2025-05-22T16:33:19.877,-0.22
2025-05-22T16:33:19.881,-0.23
2025-05-22T16:33:19.885,-0.24
2025-05-22T16:33:19.888,-0.25
2025-05-22T16:33:19.892,-0.26
2025-05-22T16:33:19.896,-0.25
2025-05-22T16:33:19.900,-0.26
2025-05-22T16:33:19.903,-0.27
2025-05-22T16:33:19.907,-0.28
2025-05-22T16:33:19.911,-0.28
2025-05-22T16:33:19.915,-0.28
2025-05-22T16:33:19.918,-0.28
2025-05-22T16:33:19.922,-0.29
2025-05-22T16:33:19.926,-0.30
2025-05-22T16:33:19.930,-0.31
2025-05-22T16:33:19.933,-0.31
2025-05-22T16:33:19.937,-0.31
2025-05-22T16:33:19.941,-0.30
2025-05-22T16:33:19.945,-0.30
2025-05-22T16:33:19.948,-0.31
2025-05-22T16:33:19.952,-0.30
2025-05-22T16:33:19.956,-0.29
2025-05-22T16:33:19.960,-0.29
2025-05-22T16:33:19.963,-0.29
2025-05-22T16:33:19.967,-0.30
2025-05-22T16:33:19.971,-0.30
2025-05-22T16:33:19.975,-0.30
2025-05-22T16:33:19.978,-0.29
2025-05-22T16:33:19.982,-0.30
2025-05-22T16:33:19.986,-0.31
2025-05-22T16:33:19.990,-0.31
2025-05-22T16:33:19.993,-0.29
2025-05-22T16:33:19.997,-0.28
2025-05-22T16:33:20.001,-0.29
2025-05-22T16:33:20.005,-0.29
2025-05-22T16:33:20.008,-0.29
2025-05-22T16:33:20.012,-0.29
2025-05-22T16:33:20.016,-0.28
2025-05-22T16:33:20.020,-0.29
2025-05-22T16:33:20.023,-0.29
2025-05-22T16:33:20.027,-0.30
2025-05-22T16:33:20.031,-0.30
2025-05-22T16:33:20.035,-0.30
2025-05-22T16:33:20.038,-0.30
2025-05-22T16:33:20.042,-0.31
2025-05-22T16:33:20.046,-0.32
2025-05-22T16:33:20.050,-0.31
2025-05-22T16:33:20.053,-0.31
2025-05-22T16:33:20.057,-0.31
2025-05-22T16:33:20.061,-0.31
2025-05-22T16:33:20.065,-0.32
2025-05-22T16:33:20.068,-0.32
2025-05-22T16:33:20.072,-0.32
2025-05-22T16:33:20.076,-0.32
2025-05-22T16:33:20.080,-0.32
2025-05-22T16:33:20.083,-0.31
2025-05-22T16:33:20.087,-0.31
2025-05-22T16:33:20.091,-0.31
2025-05-22T16:33:20.095,-0.31
2025-05-22T16:33:20.098,-0.31
2025-05-22T16:33:20.102,-0.31
2025-05-22T16:33:20.106,-0.31
2025-05-22T16:33:20.110,-0.32
2025-05-22T16:33:20.113,-0.31
2025-05-22T16:33:20.117,-0.30
2025-05-22T16:33:20.121,-0.31
2025-05-22T16:33:20.125,-0.31
2025-05-22T16:33:20.128,-0.31
2025-05-22T16:33:20.132,-0.31
2025-05-22T16:33:20.136,-0.31
2025-05-22T16:33:20.140,-0.31
2025-05-22T16:33:20.143,-0.31
2025-05-22T16:33:20.147,-0.31
2025-05-22T16:33:20.151,-0.32
2025-05-22T16:33:20.155,-0.32
2025-05-22T16:33:20.158,-0.31
2025-05-22T16:33:20.162,-0.31
2025-05-22T16:33:20.166,-0.31
2025-05-22T16:33:20.170,-0.31
2025-05-22T16:33:20.173,-0.32
2025-05-22T16:33:20.177,-0.31
2025-05-22T16:33:20.181,-0.30
2025-05-22T16:33:20.185,-0.28
2025-05-22T16:33:20.188,-0.24
2025-05-22T16:33:20.192,-0.22
2025-05-22T16:33:20.196,-0.20
2025-05-22T16:33:20.200,-0.15
2025-05-22T16:33:20.203,-0.09
2025-05-22T16:33:20.207,-0.04
2025-05-22T16:33:20.211,-0.03
2025-05-22T16:33:20.215,0.02
2025-05-22T16:33:20.218,0.06
2025-05-22T16:33:20.222,0.08
2025-05-22T16:33:20.226,0.08
2025-05-22T16:33:20.230,0.05
2025-05-22T16:33:20.233,-0.03
2025-05-22T16:33:20.237,-0.11
2025-05-22T16:33:20.241,-0.16
2025-05-22T16:33:20.245,-0.20
2025-05-22T16:33:20.248,-0.23
2025-05-22T16:33:20.252,-0.28
2025-05-22T16:33:20.256,-0.31
2025-05-22T16:33:20.260,-0.35
2025-05-22T16:33:20.263,-0.39
2025-05-22T16:33:20.267,-0.42
2025-05-22T16:33:20.271,-0.42
2025-05-22T16:33:20.275,-0.42
2025-05-22T16:33:20.278,-0.42
2025-05-22T16:33:20.282,-0.41
2025-05-22T16:33:20.286,-0.40
2025-05-22T16:33:20.290,-0.41
2025-05-22T16:33:20.293,-0.40
2025-05-22T16:33:20.297,-0.39
2025-05-22T16:33:20.301,-0.38
2025-05-22T16:33:20.305,-0.37
2025-05-22T16:33:20.308,-0.36
2025-05-22T16:33:20.312,-0.35
2025-05-22T16:33:20.316,-0.35
2025-05-22T16:33:20.320,-0.35
2025-05-22T16:33:20.323,-0.36
2025-05-22T16:33:20.327,-0.33
2025-05-22T16:33:20.331,-0.12
2025-05-22T16:33:20.335,0.26
2025-05-22T16:33:20.338,0.63
2025-05-22T16:33:20.342,1.02
2025-05-22T16:33:20.346,1.52
2025-05-22T16:33:20.350,2.12
2025-05-22T16:33:20.353,2.82
2025-05-22T16:33:20.357,3.21
2025-05-22T16:33:20.361,2.81
2025-05-22T16:33:20.365,1.33
2025-05-22T16:33:20.368,-0.33
2025-05-22T16:33:20.372,-1.16
2025-05-22T16:33:20.376,-1.41
2025-05-22T16:33:20.380,-1.32
2025-05-22T16:33:20.383,-1.23
2025-05-22T16:33:20.387,-1.14
2025-05-22T16:33:20.391,-0.97
2025-05-22T16:33:20.395,-0.70
2025-05-22T16:33:20.398,-0.42
2025-05-22T16:33:20.402,-0.26
2025-05-22T16:33:20.406,-0.25
2025-05-22T16:33:20.410,-0.25
2025-05-22T16:33:20.413,-0.24
2025-05-22T16:33:20.417,-0.21
2025-05-22T16:33:20.421,-0.17
2025-05-22T16:33:20.425,-0.16
2025-05-22T16:33:20.428,-0.15
2025-05-22T16:33:20.432,-0.14
2025-05-22T16:33:20.436,-0.13
2025-05-22T16:33:20.440,-0.11
2025-05-22T16:33:20.443,-0.09
2025-05-22T16:33:20.447,-0.09
2025-05-22T16:33:20.451,-0.07
2025-05-22T16:33:20.455,-0.06
2025-05-22T16:33:20.458,-0.05
2025-05-22T16:33:20.462,-0.03
2025-05-22T16:33:20.466,-0.02
2025-05-22T16:33:20.470,-0.01
2025-05-22T16:33:20.473,0.00
2025-05-22T16:33:20.477,0.02
2025-05-22T16:33:20.481,0.05
2025-05-22T16:33:20.485,0.05
2025-05-22T16:33:20.488,0.04
2025-05-22T16:33:20.492,0.06
2025-05-22T16:33:20.496,0.10
2025-05-22T16:33:20.500,0.12
2025-05-22T16:33:20.503,0.13
2025-05-22T16:33:20.507,0.15
2025-05-22T16:33:20.511,0.18
2025-05-22T16:33:20.515,0.22
2025-05-22T16:33:20.518,0.25
2025-05-22T16:33:20.522,0.27
2025-05-22T16:33:20.526,0.27
2025-05-22T16:33:20.530,0.28
2025-05-22T16:33:20.533,0.30
2025-05-22T16:33:20.537,0.32
2025-05-22T16:33:20.541,0.36
2025-05-22T16:33:20.545,0.39
2025-05-22T16:33:20.548,0.42
2025-05-22T16:33:20.552,0.45
2025-05-22T16:33:20.556,0.48
2025-05-22T16:33:20.560,0.52
2025-05-22T16:33:20.563,0.56
2025-05-22T16:33:20.567,0.59
2025-05-22T16:33:20.571,0.63
2025-05-22T16:33:20.575,0.67
2025-05-22T16:33:20.578,0.69
2025-05-22T16:33:20.582,0.71
2025-05-22T16:33:20.586,0.73
2025-05-22T16:33:20.590,0.75
2025-05-22T16:33:20.593,0.75
2025-05-22T16:33:20.597,0.75
2025-05-22T16:33:20.601,0.73
2025-05-22T16:33:20.605,0.70
2025-05-22T16:33:20.608,0.69
2025-05-22T16:33:20.612,0.68
2025-05-22T16:33:20.616,0.67
2025-05-22T16:33:20.620,0.64
2025-05-22T16:33:20.623,0.59
2025-05-22T16:33:20.627,0.52
2025-05-22T16:33:20.631,0.45
2025-05-22T16:33:20.635,0.42
2025-05-22T16:33:20.638,0.38
2025-05-22T16:33:20.642,0.33
2025-05-22T16:33:20.646,0.26
2025-05-22T16:33:20.650,0.18
2025-05-22T16:33:20.653,0.12
2025-05-22T16:33:20.657,0.08
2025-05-22T16:33:20.661,0.04
2025-05-22T16:33:20.665,-0.00
2025-05-22T16:33:20.668,-0.05
2025-05-22T16:33:20.672,-0.07
2025-05-22T16:33:20.676,-0.09
2025-05-22T16:33:20.680,-0.13
2025-05-22T16:33:20.683,-0.17
2025-05-22T16:33:20.687,-0.21
2025-05-22T16:33:20.691,-0.24
2025-05-22T16:33:20.695,-0.24
2025-05-22T16:33:20.698,-0.23
2025-05-22T16:33:20.702,-0.22
2025-05-22T16:33:20.706,-0.22
2025-05-22T16:33:20.710,-0.21
2025-05-22T16:33:20.713,-0.22
2025-05-22T16:33:20.717,-0.22
2025-05-22T16:33:20.721,-0.21
2025-05-22T16:33:20.725,-0.21
2025-05-22T16:33:20.728,-0.22
2025-05-22T16:33:20.732,-0.23
2025-05-22T16:33:20.736,-0.22
2025-05-22T16:33:20.740,-0.20
2025-05-22T16:33:20.743,-0.19
2025-05-22T16:33:20.747,-0.19
2025-05-22T16:33:20.751,-0.19
2025-05-22T16:33:20.755,-0.18
2025-05-22T16:33:20.758,-0.16
2025-05-22T16:33:20.762,-0.15
2025-05-22T16:33:20.766,-0.17
2025-05-22T16:33:20.770,-0.17
2025-05-22T16:33:20.773,-0.16
2025-05-22T16:33:20.777,-0.16
2025-05-22T16:33:20.781,-0.16
2025-05-22T16:33:20.785,-0.16
2025-05-22T16:33:20.788,-0.19
2025-05-22T16:33:20.792,-0.21
2025-05-22T16:33:20.796,-0.20
2025-05-22T16:33:20.800,-0.20
2025-05-22T16:33:20.803,-0.22
2025-05-22T16:33:20.807,-0.23
2025-05-22T16:33:20.811,-0.24
2025-05-22T16:33:20.815,-0.24
2025-05-22T16:33:20.818,-0.25
2025-05-22T16:33:20.822,-0.27
2025-05-22T16:33:20.826,-0.29
2025-05-22T16:33:20.830,-0.29
2025-05-22T16:33:20.833,-0.29
2025-05-22T16:33:20.837,-0.28
2025-05-22T16:33:20.841,-0.27
2025-05-22T16:33:20.845,-0.28
2025-05-22T16:33:20.848,-0.29
2025-05-22T16:33:20.852,-0.30
2025-05-22T16:33:20.856,-0.31
2025-05-22T16:33:20.860,-0.31
2025-05-22T16:33:20.863,-0.31
2025-05-22T16:33:20.867,-0.31
2025-05-22T16:33:20.871,-0.32
2025-05-22T16:33:20.875,-0.33
2025-05-22T16:33:20.878,-0.34
2025-05-22T16:33:20.882,-0.35
2025-05-22T16:33:20.886,-0.34
2025-05-22T16:33:20.890,-0.33
2025-05-22T16:33:20.893,-0.33
2025-05-22T16:33:20.897,-0.33
2025-05-22T16:33:20.901,-0.34
2025-05-22T16:33:20.905,-0.37
2025-05-22T16:33:20.908,-0.37
2025-05-22T16:33:20.912,-0.37
2025-05-22T16:33:20.916,-0.37
2025-05-22T16:33:20.920,-0.36
2025-05-22T16:33:20.923,-0.35
2025-05-22T16:33:20.927,-0.34
2025-05-22T16:33:20.931,-0.34
2025-05-22T16:33:20.935,-0.35
2025-05-22T16:33:20.938,-0.35
2025-05-22T16:33:20.942,-0.36
2025-05-22T16:33:20.946,-0.38
2025-05-22T16:33:20.950,-0.38
2025-05-22T16:33:20.953,-0.36
2025-05-22T16:33:20.957,-0.35
2025-05-22T16:33:20.961,-0.35
2025-05-22T16:33:20.965,-0.36
2025-05-22T16:33:20.968,-0.36
2025-05-22T16:33:20.972,-0.36
2025-05-22T16:33:20.976,-0.35
2025-05-22T16:33:20.980,-0.35
2025-05-22T16:33:20.983,-0.36
2025-05-22T16:33:20.987,-0.35
2025-05-22T16:33:20.991,-0.35
2025-05-22T16:33:20.995,-0.36
2025-05-22T16:33:20.998,-0.36
2025-05-22T16:33:21.002,-0.36
2025-05-22T16:33:21.006,-0.35
2025-05-22T16:33:21.010,-0.35
2025-05-22T16:33:21.013,-0.35
2025-05-22T16:33:21.017,-0.35
2025-05-22T16:33:21.021,-0.36
2025-05-22T16:33:21.025,-0.36
2025-05-22T16:33:21.028,-0.37
2025-05-22T16:33:21.032,-0.37
2025-05-22T16:33:21.036,-0.36
2025-05-22T16:33:21.040,-0.37
2025-05-22T16:33:21.043,-0.39
2025-05-22T16:33:21.047,-0.39
2025-05-22T16:33:21.051,-0.35
2025-05-22T16:33:21.055,-0.31
2025-05-22T16:33:21.058,-0.28
2025-05-22T16:33:21.062,-0.27
2025-05-22T16:33:21.066,-0.27
2025-05-22T16:33:21.070,-0.22
2025-05-22T16:33:21.073,-0.14
2025-05-22T16:33:21.077,-0.10
2025-05-22T16:33:21.081,-0.07
2025-05-22T16:33:21.085,-0.06
2025-05-22T16:33:21.088,-0.05
2025-05-22T16:33:21.092,-0.03
2025-05-22T16:33:21.096,-0.02
2025-05-22T16:33:21.100,-0.07
2025-05-22T16:33:21.103,-0.13
2025-05-22T16:33:21.107,-0.20
2025-05-22T16:33:21.111,-0.26
2025-05-22T16:33:21.115,-0.30
2025-05-22T16:33:21.118,-0.33
2025-05-22T16:33:21.122,-0.34
2025-05-22T16:33:21.126,-0.38
2025-05-22T16:33:21.130,-0.43
2025-05-22T16:33:21.133,-0.46
2025-05-22T16:33:21.137,-0.48
2025-05-22T16:33:21.137,-0.48
2025-05-22T16:33:21.141,-0.47
2025-05-22T16:33:21.144,-0.46
2025-05-22T16:33:21.148,-0.46
2025-05-22T16:33:21.152,-0.46
2025-05-22T16:33:21.156,-0.45
2025-05-22T16:33:21.159,-0.46
2025-05-22T16:33:21.163,-0.47
2025-05-22T16:33:21.167,-0.46
2025-05-22T16:33:21.171,-0.46
2025-05-22T16:33:21.174,-0.45
2025-05-22T16:33:21.178,-0.45
2025-05-22T16:33:21.182,-0.46
2025-05-22T16:33:21.186,-0.49
2025-05-22T16:33:21.189,-0.51
2025-05-22T16:33:21.193,-0.39
2025-05-22T16:33:21.197,-0.07
2025-05-22T16:33:21.201,0.30
2025-05-22T16:33:21.204,0.68
2025-05-22T16:33:21.208,1.17
2025-05-22T16:33:21.208,1.70
2025-05-22T16:33:21.208,2.39
2025-05-22T16:33:21.208,2.94
2025-05-22T16:33:21.208,2.78
2025-05-22T16:33:21.212,1.55
2025-05-22T16:33:21.216,-0.25
2025-05-22T16:33:21.219,-1.28
2025-05-22T16:33:21.223,-1.60
2025-05-22T16:33:21.227,-1.56
2025-05-22T16:33:21.231,-1.42
2025-05-22T16:33:21.234,-1.35
2025-05-22T16:33:21.238,-1.22
2025-05-22T16:33:21.242,-1.02
2025-05-22T16:33:21.246,-0.77
2025-05-22T16:33:21.249,-0.53
2025-05-22T16:33:21.253,-0.40
2025-05-22T16:33:21.257,-0.35
2025-05-22T16:33:21.261,-0.34
2025-05-22T16:33:21.264,-0.33
2025-05-22T16:33:21.268,-0.31
2025-05-22T16:33:21.272,-0.27
2025-05-22T16:33:21.276,-0.24
2025-05-22T16:33:21.279,-0.21
2025-05-22T16:33:21.283,-0.20
2025-05-22T16:33:21.287,-0.18
2025-05-22T16:33:21.291,-0.17
2025-05-22T16:33:21.294,-0.17
2025-05-22T16:33:21.298,-0.16
2025-05-22T16:33:21.302,-0.14
2025-05-22T16:33:21.306,-0.14
2025-05-22T16:33:21.309,-0.14
2025-05-22T16:33:21.313,-0.13
2025-05-22T16:33:21.317,-0.11
2025-05-22T16:33:21.321,-0.10
2025-05-22T16:33:21.324,-0.10
2025-05-22T16:33:21.328,-0.08
2025-05-22T16:33:21.332,-0.07
2025-05-22T16:33:21.336,-0.07
2025-05-22T16:33:21.339,-0.04
2025-05-22T16:33:21.343,-0.03
2025-05-22T16:33:21.347,-0.03
2025-05-22T16:33:21.351,-0.00
2025-05-22T16:33:21.354,0.02
2025-05-22T16:33:21.358,0.04
2025-05-22T16:33:21.362,0.05
2025-05-22T16:33:21.366,0.06
2025-05-22T16:33:21.369,0.08
2025-05-22T16:33:21.373,0.10
2025-05-22T16:33:21.377,0.13
2025-05-22T16:33:21.381,0.16
2025-05-22T16:33:21.384,0.20
2025-05-22T16:33:21.388,0.22
2025-05-22T16:33:21.392,0.24
2025-05-22T16:33:21.396,0.26
2025-05-22T16:33:21.399,0.30
2025-05-22T16:33:21.403,0.33
2025-05-22T16:33:21.407,0.35
2025-05-22T16:33:21.411,0.37
2025-05-22T16:33:21.414,0.40
2025-05-22T16:33:21.418,0.45
2025-05-22T16:33:21.422,0.49
2025-05-22T16:33:21.426,0.52
2025-05-22T16:33:21.429,0.55
2025-05-22T16:33:21.433,0.58
2025-05-22T16:33:21.437,0.60
2025-05-22T16:33:21.441,0.62
2025-05-22T16:33:21.444,0.62
2025-05-22T16:33:21.448,0.61
2025-05-22T16:33:21.452,0.60
2025-05-22T16:33:21.456,0.58
2025-05-22T16:33:21.459,0.56
2025-05-22T16:33:21.463,0.53
2025-05-22T16:33:21.467,0.50
2025-05-22T16:33:21.471,0.45
2025-05-22T16:33:21.474,0.40
2025-05-22T16:33:21.478,0.36
2025-05-22T16:33:21.482,0.30
2025-05-22T16:33:21.486,0.23
2025-05-22T16:33:21.489,0.18
2025-05-22T16:33:21.493,0.13
2025-05-22T16:33:21.497,0.06
2025-05-22T16:33:21.501,-0.01
2025-05-22T16:33:21.504,-0.08
2025-05-22T16:33:21.508,-0.13
2025-05-22T16:33:21.512,-0.17
2025-05-22T16:33:21.516,-0.20
2025-05-22T16:33:21.519,-0.23
2025-05-22T16:33:21.523,-0.26
2025-05-22T16:33:21.527,-0.28
2025-05-22T16:33:21.531,-0.30
2025-05-22T16:33:21.534,-0.32
2025-05-22T16:33:21.538,-0.34
2025-05-22T16:33:21.542,-0.35
2025-05-22T16:33:21.546,-0.36
2025-05-22T16:33:21.549,-0.36
2025-05-22T16:33:21.553,-0.34
2025-05-22T16:33:21.557,-0.34
2025-05-22T16:33:21.561,-0.35
2025-05-22T16:33:21.564,-0.35
2025-05-22T16:33:21.568,-0.34
2025-05-22T16:33:21.572,-0.34
2025-05-22T16:33:21.576,-0.33
2025-05-22T16:33:21.579,-0.31
2025-05-22T16:33:21.583,-0.30
2025-05-22T16:33:21.587,-0.31
2025-05-22T16:33:21.591,-0.31
2025-05-22T16:33:21.594,-0.29
2025-05-22T16:33:21.598,-0.26
2025-05-22T16:33:21.602,-0.27
2025-05-22T16:33:21.606,-0.28
2025-05-22T16:33:21.609,-0.27
2025-05-22T16:33:21.613,-0.27
2025-05-22T16:33:21.617,-0.28
2025-05-22T16:33:21.621,-0.26
2025-05-22T16:33:21.624,-0.27
2025-05-22T16:33:21.628,-0.28
2025-05-22T16:33:21.632,-0.29
2025-05-22T16:33:21.636,-0.29
2025-05-22T16:33:21.639,-0.28
2025-05-22T16:33:21.643,-0.28
2025-05-22T16:33:21.647,-0.30
2025-05-22T16:33:21.651,-0.31
2025-05-22T16:33:21.654,-0.30
2025-05-22T16:33:21.658,-0.30
2025-05-22T16:33:21.662,-0.31
2025-05-22T16:33:21.666,-0.31
2025-05-22T16:33:21.669,-0.32
2025-05-22T16:33:21.673,-0.32
2025-05-22T16:33:21.677,-0.33
2025-05-22T16:33:21.681,-0.34
2025-05-22T16:33:21.684,-0.35
2025-05-22T16:33:21.688,-0.35
2025-05-22T16:33:21.692,-0.35
2025-05-22T16:33:21.696,-0.37
2025-05-22T16:33:21.699,-0.36
2025-05-22T16:33:21.703,-0.36
2025-05-22T16:33:21.707,-0.37
2025-05-22T16:33:21.711,-0.38
2025-05-22T16:33:21.714,-0.39
2025-05-22T16:33:21.718,-0.40
2025-05-22T16:33:21.722,-0.40
2025-05-22T16:33:21.726,-0.40
2025-05-22T16:33:21.729,-0.41
2025-05-22T16:33:21.733,-0.42
2025-05-22T16:33:21.737,-0.40
2025-05-22T16:33:21.741,-0.40
2025-05-22T16:33:21.744,-0.41
2025-05-22T16:33:21.748,-0.42
2025-05-22T16:33:21.752,-0.41
2025-05-22T16:33:21.756,-0.41
2025-05-22T16:33:21.759,-0.40
2025-05-22T16:33:21.763,-0.41
2025-05-22T16:33:21.767,-0.42
2025-05-22T16:33:21.771,-0.42
2025-05-22T16:33:21.774,-0.41
2025-05-22T16:33:21.778,-0.41
2025-05-22T16:33:21.782,-0.41
2025-05-22T16:33:21.786,-0.41
2025-05-22T16:33:21.789,-0.42
2025-05-22T16:33:21.793,-0.42
2025-05-22T16:33:21.797,-0.42
2025-05-22T16:33:21.801,-0.42
2025-05-22T16:33:21.804,-0.41
2025-05-22T16:33:21.808,-0.41
2025-05-22T16:33:21.812,-0.41
2025-05-22T16:33:21.816,-0.41
2025-05-22T16:33:21.819,-0.40
2025-05-22T16:33:21.823,-0.41
2025-05-22T16:33:21.827,-0.43
2025-05-22T16:33:21.831,-0.43
2025-05-22T16:33:21.834,-0.41
2025-05-22T16:33:21.838,-0.41
2025-05-22T16:33:21.842,-0.40
2025-05-22T16:33:21.846,-0.40
2025-05-22T16:33:21.849,-0.41
2025-05-22T16:33:21.853,-0.41
2025-05-22T16:33:21.857,-0.41
2025-05-22T16:33:21.861,-0.40
2025-05-22T16:33:21.864,-0.41
2025-05-22T16:33:21.868,-0.41
2025-05-22T16:33:21.872,-0.41
2025-05-22T16:33:21.876,-0.41
2025-05-22T16:33:21.879,-0.41
2025-05-22T16:33:21.883,-0.41
2025-05-22T16:33:21.887,-0.39
2025-05-22T16:33:21.891,-0.37
2025-05-22T16:33:21.894,-0.35
2025-05-22T16:33:21.898,-0.33
2025-05-22T16:33:21.902,-0.28
2025-05-22T16:33:21.906,-0.22
2025-05-22T16:33:21.909,-0.17
2025-05-22T16:33:21.913,-0.11
2025-05-22T16:33:21.917,-0.06
2025-05-22T16:33:21.921,-0.05
2025-05-22T16:33:21.924,-0.06
2025-05-22T16:33:21.928,-0.07
2025-05-22T16:33:21.932,-0.11
2025-05-22T16:33:21.936,-0.15
2025-05-22T16:33:21.939,-0.20
2025-05-22T16:33:21.943,-0.25
2025-05-22T16:33:21.947,-0.32
2025-05-22T16:33:21.951,-0.36
2025-05-22T16:33:21.954,-0.38
2025-05-22T16:33:21.958,-0.42
2025-05-22T16:33:21.962,-0.47
2025-05-22T16:33:21.966,-0.50
2025-05-22T16:33:21.969,-0.51
2025-05-22T16:33:21.973,-0.52
2025-05-22T16:33:21.977,-0.52
2025-05-22T16:33:21.981,-0.52
2025-05-22T16:33:21.984,-0.52
2025-05-22T16:33:21.988,-0.52
2025-05-22T16:33:21.992,-0.52
2025-05-22T16:33:21.996,-0.50
2025-05-22T16:33:21.999,-0.48
2025-05-22T16:33:22.003,-0.47
2025-05-22T16:33:22.007,-0.47
2025-05-22T16:33:22.011,-0.47
2025-05-22T16:33:22.014,-0.47
2025-05-22T16:33:22.018,-0.46
2025-05-22T16:33:22.022,-0.47
2025-05-22T16:33:22.026,-0.50
2025-05-22T16:33:22.029,-0.49
2025-05-22T16:33:22.033,-0.30
2025-05-22T16:33:22.037,0.06
2025-05-22T16:33:22.041,0.45
2025-05-22T16:33:22.044,0.85
2025-05-22T16:33:22.048,1.36
2025-05-22T16:33:22.052,1.95
2025-05-22T16:33:22.056,2.63
2025-05-22T16:33:22.059,3.03
2025-05-22T16:33:22.063,2.70
2025-05-22T16:33:22.067,1.34
2025-05-22T16:33:22.071,-0.36
2025-05-22T16:33:22.074,-1.26
2025-05-22T16:33:22.078,-1.53
2025-05-22T16:33:22.082,-1.44
2025-05-22T16:33:22.086,-1.34
2025-05-22T16:33:22.089,-1.28
2025-05-22T16:33:22.093,-1.12
2025-05-22T16:33:22.097,-0.87
2025-05-22T16:33:22.101,-0.57
2025-05-22T16:33:22.104,-0.37
2025-05-22T16:33:22.108,-0.33
2025-05-22T16:33:22.112,-0.32
2025-05-22T16:33:22.116,-0.30
2025-05-22T16:33:22.119,-0.28
2025-05-22T16:33:22.123,-0.27
2025-05-22T16:33:22.127,-0.26
2025-05-22T16:33:22.131,-0.24
2025-05-22T16:33:22.134,-0.21
2025-05-22T16:33:22.138,-0.19
2025-05-22T16:33:22.142,-0.15
2025-05-22T16:33:22.146,-0.13
2025-05-22T16:33:22.149,-0.12
2025-05-22T16:33:22.153,-0.11
2025-05-22T16:33:22.157,-0.10
2025-05-22T16:33:22.161,-0.10
2025-05-22T16:33:22.164,-0.10
2025-05-22T16:33:22.168,-0.08
2025-05-22T16:33:22.172,-0.04
2025-05-22T16:33:22.176,-0.02
2025-05-22T16:33:22.179,-0.02
2025-05-22T16:33:22.183,-0.03
2025-05-22T16:33:22.187,-0.04
2025-05-22T16:33:22.191,-0.02
2025-05-22T16:33:22.194,0.01
2025-05-22T16:33:22.198,0.03
2025-05-22T16:33:22.202,0.05
2025-05-22T16:33:22.206,0.06
2025-05-22T16:33:22.209,0.10
2025-05-22T16:33:22.213,0.13
2025-05-22T16:33:22.217,0.14
2025-05-22T16:33:22.221,0.15
2025-05-22T16:33:22.224,0.17
2025-05-22T16:33:22.228,0.19
2025-05-22T16:33:22.232,0.22
2025-05-22T16:33:22.236,0.24
2025-05-22T16:33:22.239,0.25
2025-05-22T16:33:22.243,0.28
2025-05-22T16:33:22.247,0.30
2025-05-22T16:33:22.251,0.33
2025-05-22T16:33:22.254,0.38
2025-05-22T16:33:22.258,0.41
2025-05-22T16:33:22.262,0.45
2025-05-22T16:33:22.266,0.48
2025-05-22T16:33:22.269,0.52
2025-05-22T16:33:22.273,0.55
2025-05-22T16:33:22.277,0.60
2025-05-22T16:33:22.281,0.65
2025-05-22T16:33:22.284,0.68
2025-05-22T16:33:22.288,0.69
2025-05-22T16:33:22.292,0.71
2025-05-22T16:33:22.296,0.72
2025-05-22T16:33:22.299,0.74
2025-05-22T16:33:22.303,0.74
2025-05-22T16:33:22.307,0.74
2025-05-22T16:33:22.311,0.73
2025-05-22T16:33:22.314,0.71
2025-05-22T16:33:22.318,0.68
2025-05-22T16:33:22.322,0.65
2025-05-22T16:33:22.326,0.60
2025-05-22T16:33:22.329,0.55
2025-05-22T16:33:22.333,0.49
2025-05-22T16:33:22.337,0.43
2025-05-22T16:33:22.341,0.37
2025-05-22T16:33:22.344,0.31
2025-05-22T16:33:22.348,0.25
2025-05-22T16:33:22.352,0.17
2025-05-22T16:33:22.356,0.08
2025-05-22T16:33:22.359,0.02
2025-05-22T16:33:22.363,-0.02
2025-05-22T16:33:22.367,-0.06
2025-05-22T16:33:22.371,-0.12
2025-05-22T16:33:22.374,-0.17
2025-05-22T16:33:22.378,-0.21
2025-05-22T16:33:22.382,-0.25
2025-05-22T16:33:22.386,-0.28
2025-05-22T16:33:22.389,-0.27
2025-05-22T16:33:22.393,-0.26
2025-05-22T16:33:22.397,-0.27
2025-05-22T16:33:22.401,-0.28
2025-05-22T16:33:22.404,-0.29
2025-05-22T16:33:22.408,-0.30
2025-05-22T16:33:22.412,-0.28
2025-05-22T16:33:22.416,-0.27
2025-05-22T16:33:22.419,-0.29
2025-05-22T16:33:22.423,-0.29
2025-05-22T16:33:22.427,-0.27
2025-05-22T16:33:22.431,-0.25
2025-05-22T16:33:22.434,-0.27
2025-05-22T16:33:22.438,-0.27
2025-05-22T16:33:22.442,-0.25
2025-05-22T16:33:22.446,-0.24
2025-05-22T16:33:22.449,-0.24
2025-05-22T16:33:22.453,-0.25
2025-05-22T16:33:22.457,-0.25
2025-05-22T16:33:22.461,-0.22
2025-05-22T16:33:22.464,-0.20
2025-05-22T16:33:22.468,-0.21
2025-05-22T16:33:22.472,-0.22
2025-05-22T16:33:22.476,-0.21
2025-05-22T16:33:22.479,-0.20
2025-05-22T16:33:22.483,-0.19
2025-05-22T16:33:22.487,-0.20
2025-05-22T16:33:22.491,-0.21
2025-05-22T16:33:22.494,-0.22
2025-05-22T16:33:22.498,-0.23
2025-05-22T16:33:22.502,-0.24
2025-05-22T16:33:22.506,-0.24
2025-05-22T16:33:22.509,-0.24
2025-05-22T16:33:22.513,-0.25
2025-05-22T16:33:22.517,-0.26
2025-05-22T16:33:22.521,-0.27
2025-05-22T16:33:22.524,-0.28
2025-05-22T16:33:22.528,-0.28
2025-05-22T16:33:22.532,-0.29
2025-05-22T16:33:22.536,-0.28
2025-05-22T16:33:22.539,-0.27
2025-05-22T16:33:22.543,-0.29
2025-05-22T16:33:22.547,-0.30
2025-05-22T16:33:22.551,-0.30
2025-05-22T16:33:22.554,-0.31
2025-05-22T16:33:22.558,-0.32
2025-05-22T16:33:22.562,-0.35
2025-05-22T16:33:22.566,-0.36
2025-05-22T16:33:22.569,-0.34
2025-05-22T16:33:22.573,-0.33
2025-05-22T16:33:22.577,-0.32
2025-05-22T16:33:22.581,-0.34
2025-05-22T16:33:22.584,-0.35
2025-05-22T16:33:22.588,-0.35
2025-05-22T16:33:22.592,-0.35
2025-05-22T16:33:22.596,-0.35
2025-05-22T16:33:22.599,-0.36
2025-05-22T16:33:22.603,-0.36
2025-05-22T16:33:22.607,-0.37
2025-05-22T16:33:22.611,-0.37
2025-05-22T16:33:22.614,-0.36
2025-05-22T16:33:22.618,-0.36
2025-05-22T16:33:22.622,-0.35
2025-05-22T16:33:22.626,-0.36
2025-05-22T16:33:22.629,-0.37
2025-05-22T16:33:22.633,-0.36
2025-05-22T16:33:22.637,-0.35
2025-05-22T16:33:22.641,-0.35
2025-05-22T16:33:22.644,-0.34
2025-05-22T16:33:22.648,-0.35
2025-05-22T16:33:22.652,-0.35
2025-05-22T16:33:22.656,-0.35
2025-05-22T16:33:22.659,-0.35
2025-05-22T16:33:22.663,-0.33
2025-05-22T16:33:22.667,-0.33
2025-05-22T16:33:22.671,-0.33
2025-05-22T16:33:22.674,-0.34
2025-05-22T16:33:22.678,-0.34
2025-05-22T16:33:22.682,-0.35
2025-05-22T16:33:22.686,-0.36
2025-05-22T16:33:22.689,-0.36
2025-05-22T16:33:22.693,-0.35
2025-05-22T16:33:22.697,-0.35
2025-05-22T16:33:22.701,-0.35
2025-05-22T16:33:22.704,-0.35
2025-05-22T16:33:22.708,-0.34
2025-05-22T16:33:22.712,-0.32
2025-05-22T16:33:22.716,-0.29
2025-05-22T16:33:22.719,-0.26
2025-05-22T16:33:22.723,-0.26
2025-05-22T16:33:22.727,-0.24
2025-05-22T16:33:22.731,-0.17
2025-05-22T16:33:22.734,-0.11
2025-05-22T16:33:22.738,-0.05
2025-05-22T16:33:22.742,-0.02
2025-05-22T16:33:22.746,-0.04
2025-05-22T16:33:22.749,-0.04
2025-05-22T16:33:22.753,-0.03
2025-05-22T16:33:22.757,-0.06
2025-05-22T16:33:22.761,-0.11
2025-05-22T16:33:22.764,-0.17
2025-05-22T16:33:22.768,-0.23
2025-05-22T16:33:22.772,-0.29
2025-05-22T16:33:22.776,-0.31
2025-05-22T16:33:22.779,-0.33
2025-05-22T16:33:22.783,-0.37
2025-05-22T16:33:22.787,-0.42
2025-05-22T16:33:22.791,-0.46
2025-05-22T16:33:22.794,-0.47
2025-05-22T16:33:22.798,-0.47
2025-05-22T16:33:22.802,-0.46
2025-05-22T16:33:22.806,-0.46
2025-05-22T16:33:22.809,-0.46
2025-05-22T16:33:22.813,-0.47
2025-05-22T16:33:22.817,-0.46
2025-05-22T16:33:22.821,-0.45
2025-05-22T16:33:22.824,-0.47
2025-05-22T16:33:22.828,-0.47
2025-05-22T16:33:22.832,-0.45
2025-05-22T16:33:22.836,-0.45
2025-05-22T16:33:22.839,-0.46
2025-05-22T16:33:22.843,-0.47
2025-05-22T16:33:22.847,-0.48
2025-05-22T16:33:22.851,-0.50
2025-05-22T16:33:22.854,-0.51
2025-05-22T16:33:22.858,-0.32
2025-05-22T16:33:22.862,0.07
2025-05-22T16:33:22.866,0.45
2025-05-22T16:33:22.869,0.84
2025-05-22T16:33:22.873,1.35
2025-05-22T16:33:22.877,1.97
2025-05-22T16:33:22.881,2.66
2025-05-22T16:33:22.884,3.05
2025-05-22T16:33:22.888,2.63
2025-05-22T16:33:22.892,1.17
2025-05-22T16:33:22.896,-0.52
2025-05-22T16:33:22.899,-1.35
2025-05-22T16:33:22.903,-1.59
2025-05-22T16:33:22.907,-1.48
2025-05-22T16:33:22.911,-1.38
2025-05-22T16:33:22.914,-1.32
2025-05-22T16:33:22.918,-1.16
2025-05-22T16:33:22.922,-0.92
2025-05-22T16:33:22.926,-0.64
2025-05-22T16:33:22.929,-0.44
2025-05-22T16:33:22.933,-0.37
2025-05-22T16:33:22.937,-0.38
2025-05-22T16:33:22.941,-0.38
2025-05-22T16:33:22.944,-0.35
2025-05-22T16:33:22.948,-0.33
2025-05-22T16:33:22.952,-0.32
2025-05-22T16:33:22.956,-0.30
2025-05-22T16:33:22.959,-0.30
2025-05-22T16:33:22.963,-0.29
2025-05-22T16:33:22.967,-0.29
2025-05-22T16:33:22.971,-0.28
2025-05-22T16:33:22.974,-0.26
2025-05-22T16:33:22.978,-0.23
2025-05-22T16:33:22.982,-0.21
2025-05-22T16:33:22.986,-0.20
2025-05-22T16:33:22.989,-0.19
2025-05-22T16:33:22.993,-0.16
2025-05-22T16:33:22.997,-0.13
2025-05-22T16:33:23.001,-0.10
2025-05-22T16:33:23.004,-0.08
2025-05-22T16:33:23.008,-0.06
2025-05-22T16:33:23.012,-0.05
2025-05-22T16:33:23.016,-0.04
2025-05-22T16:33:23.019,-0.02
2025-05-22T16:33:23.023,-0.01
2025-05-22T16:33:23.027,0.00
2025-05-22T16:33:23.031,0.01
2025-05-22T16:33:23.034,0.03
2025-05-22T16:33:23.038,0.06
2025-05-22T16:33:23.042,0.07
2025-05-22T16:33:23.046,0.08
2025-05-22T16:33:23.049,0.11
2025-05-22T16:33:23.053,0.14
2025-05-22T16:33:23.057,0.17
2025-05-22T16:33:23.061,0.19
2025-05-22T16:33:23.064,0.21
2025-05-22T16:33:23.068,0.21
2025-05-22T16:33:23.072,0.24
2025-05-22T16:33:23.076,0.28
2025-05-22T16:33:23.079,0.32
2025-05-22T16:33:23.083,0.36
2025-05-22T16:33:23.087,0.38
2025-05-22T16:33:23.091,0.41
2025-05-22T16:33:23.094,0.46
2025-05-22T16:33:23.098,0.49
2025-05-22T16:33:23.102,0.53
2025-05-22T16:33:23.106,0.58
2025-05-22T16:33:23.109,0.61
2025-05-22T16:33:23.113,0.64
2025-05-22T16:33:23.117,0.67
2025-05-22T16:33:23.121,0.68
2025-05-22T16:33:23.124,0.68
2025-05-22T16:33:23.128,0.67
2025-05-22T16:33:23.132,0.66
2025-05-22T16:33:23.136,0.65
2025-05-22T16:33:23.139,0.63
2025-05-22T16:33:23.143,0.61
2025-05-22T16:33:23.147,0.57
2025-05-22T16:33:23.151,0.52
2025-05-22T16:33:23.154,0.46
2025-05-22T16:33:23.158,0.41
2025-05-22T16:33:23.162,0.35
2025-05-22T16:33:23.166,0.28
2025-05-22T16:33:23.169,0.20
2025-05-22T16:33:23.173,0.12
2025-05-22T16:33:23.177,0.05
2025-05-22T16:33:23.181,-0.01
2025-05-22T16:33:23.184,-0.06
2025-05-22T16:33:23.188,-0.12
2025-05-22T16:33:23.192,-0.17
2025-05-22T16:33:23.196,-0.23
2025-05-22T16:33:23.199,-0.29
2025-05-22T16:33:23.203,-0.33
2025-05-22T16:33:23.207,-0.36
2025-05-22T16:33:23.211,-0.36
2025-05-22T16:33:23.214,-0.37
2025-05-22T16:33:23.218,-0.38
2025-05-22T16:33:23.222,-0.40
2025-05-22T16:33:23.226,-0.40
2025-05-22T16:33:23.229,-0.39
2025-05-22T16:33:23.233,-0.38
2025-05-22T16:33:23.237,-0.39
2025-05-22T16:33:23.237,-0.37
2025-05-22T16:33:23.237,-0.36
2025-05-22T16:33:23.237,-0.35
2025-05-22T16:33:23.237,-0.34
2025-05-22T16:33:23.237,-0.33
2025-05-22T16:33:23.237,-0.32
2025-05-22T16:33:23.237,-0.31
2025-05-22T16:33:23.237,-0.31
2025-05-22T16:33:23.237,-0.31
2025-05-22T16:33:23.237,-0.29
2025-05-22T16:33:23.237,-0.27
2025-05-22T16:33:23.241,-0.28
2025-05-22T16:33:23.245,-0.27
2025-05-22T16:33:23.248,-0.26
2025-05-22T16:33:23.252,-0.26
2025-05-22T16:33:23.256,-0.25
2025-05-22T16:33:23.260,-0.24
2025-05-22T16:33:23.263,-0.24
2025-05-22T16:33:23.267,-0.26
2025-05-22T16:33:23.271,-0.26
2025-05-22T16:33:23.275,-0.24
2025-05-22T16:33:23.278,-0.24
2025-05-22T16:33:23.282,-0.24
2025-05-22T16:33:23.286,-0.25
2025-05-22T16:33:23.290,-0.26
2025-05-22T16:33:23.293,-0.26
2025-05-22T16:33:23.297,-0.27
2025-05-22T16:33:23.301,-0.27
2025-05-22T16:33:23.305,-0.28
2025-05-22T16:33:23.308,-0.29
2025-05-22T16:33:23.312,-0.30
2025-05-22T16:33:23.316,-0.30
2025-05-22T16:33:23.320,-0.29
2025-05-22T16:33:23.323,-0.30
2025-05-22T16:33:23.327,-0.31
2025-05-22T16:33:23.331,-0.32
2025-05-22T16:33:23.334,-0.33
2025-05-22T16:33:23.338,-0.34
2025-05-22T16:33:23.342,-0.34
2025-05-22T16:33:23.346,-0.35
2025-05-22T16:33:23.349,-0.35
2025-05-22T16:33:23.353,-0.34
2025-05-22T16:33:23.357,-0.33
2025-05-22T16:33:23.361,-0.34
2025-05-22T16:33:23.364,-0.35
2025-05-22T16:33:23.368,-0.36
2025-05-22T16:33:23.372,-0.36
2025-05-22T16:33:23.376,-0.36
2025-05-22T16:33:23.379,-0.36
2025-05-22T16:33:23.383,-0.36
2025-05-22T16:33:23.387,-0.37
2025-05-22T16:33:23.391,-0.37
2025-05-22T16:33:23.395,-0.37
2025-05-22T16:33:23.398,-0.36
2025-05-22T16:33:23.402,-0.37
2025-05-22T16:33:23.406,-0.37
2025-05-22T16:33:23.409,-0.37
2025-05-22T16:33:23.413,-0.36
2025-05-22T16:33:23.417,-0.35
2025-05-22T16:33:23.421,-0.35
2025-05-22T16:33:23.425,-0.36
2025-05-22T16:33:23.428,-0.36
2025-05-22T16:33:23.432,-0.37
2025-05-22T16:33:23.436,-0.37
2025-05-22T16:33:23.440,-0.37
2025-05-22T16:33:23.443,-0.37
2025-05-22T16:33:23.447,-0.37
2025-05-22T16:33:23.451,-0.37
2025-05-22T16:33:23.455,-0.37
2025-05-22T16:33:23.458,-0.38
2025-05-22T16:33:23.462,-0.38
2025-05-22T16:33:23.466,-0.38
2025-05-22T16:33:23.469,-0.39
2025-05-22T16:33:23.473,-0.38
2025-05-22T16:33:23.477,-0.38
2025-05-22T16:33:23.481,-0.37
2025-05-22T16:33:23.484,-0.37
2025-05-22T16:33:23.488,-0.38
2025-05-22T16:33:23.492,-0.38
2025-05-22T16:33:23.496,-0.38
2025-05-22T16:33:23.499,-0.38
2025-05-22T16:33:23.503,-0.38
2025-05-22T16:33:23.507,-0.38
2025-05-22T16:33:23.511,-0.39
2025-05-22T16:33:23.515,-0.39
2025-05-22T16:33:23.518,-0.38
2025-05-22T16:33:23.522,-0.37
2025-05-22T16:33:23.526,-0.37
2025-05-22T16:33:23.529,-0.37
2025-05-22T16:33:23.533,-0.36
2025-05-22T16:33:23.537,-0.36
2025-05-22T16:33:23.541,-0.36
2025-05-22T16:33:23.544,-0.37
2025-05-22T16:33:23.548,-0.39
2025-05-22T16:33:23.552,-0.39
2025-05-22T16:33:23.556,-0.38
2025-05-22T16:33:23.559,-0.37
2025-05-22T16:33:23.563,-0.38
2025-05-22T16:33:23.567,-0.38
2025-05-22T16:33:23.571,-0.36
2025-05-22T16:33:23.574,-0.34
2025-05-22T16:33:23.578,-0.31
2025-05-22T16:33:23.582,-0.31
2025-05-22T16:33:23.582,-0.34
2025-05-22T16:33:23.582,-0.27
2025-05-22T16:33:23.582,-0.19
2025-05-22T16:33:23.582,-0.12
2025-05-22T16:33:23.582,-0.09
2025-05-22T16:33:23.582,-0.09
2025-05-22T16:33:23.582,-0.10
2025-05-22T16:33:23.582,-0.10
2025-05-22T16:33:23.582,-0.10
2025-05-22T16:33:23.582,-0.13
2025-05-22T16:33:23.582,-0.20
2025-05-22T16:33:23.582,-0.28
2025-05-22T16:33:23.582,-0.33
2025-05-22T16:33:23.582,-0.37
2025-05-22T16:33:23.582,-0.38
2025-05-22T16:33:23.582,-0.43
2025-05-22T16:33:23.582,-0.48
2025-05-22T16:33:23.582,-0.51
2025-05-22T16:33:23.582,-0.52
2025-05-22T16:33:23.582,-0.53
2025-05-22T16:33:23.582,-0.54
2025-05-22T16:33:23.582,-0.53
2025-05-22T16:33:23.582,-0.51
2025-05-22T16:33:23.582,-0.50
2025-05-22T16:33:23.582,-0.52
2025-05-22T16:33:23.582,-0.52
2025-05-22T16:33:23.582,-0.52
2025-05-22T16:33:23.582,-0.52
2025-05-22T16:33:23.582,-0.51
2025-05-22T16:33:23.582,-0.50
2025-05-22T16:33:23.582,-0.49
2025-05-22T16:33:23.582,-0.50
2025-05-22T16:33:23.582,-0.52
2025-05-22T16:33:23.582,-0.52
2025-05-22T16:33:23.582,-0.55
2025-05-22T16:33:23.582,-0.54
2025-05-22T16:33:23.582,-0.36
2025-05-22T16:33:23.582,0.02
2025-05-22T16:33:23.582,0.42
2025-05-22T16:33:23.582,0.84
2025-05-22T16:33:23.582,1.36
2025-05-22T16:33:23.582,1.93
2025-05-22T16:33:23.582,2.60
2025-05-22T16:33:23.582,3.07
2025-05-22T16:33:23.582,2.84
2025-05-22T16:33:23.582,1.57
2025-05-22T16:33:23.582,-0.21
2025-05-22T16:33:23.582,-1.22
2025-05-22T16:33:23.582,-1.54
2025-05-22T16:33:23.582,-1.49
2025-05-22T16:33:23.582,-1.37
2025-05-22T16:33:23.582,-1.31
2025-05-22T16:33:23.582,-1.17
2025-05-22T16:33:23.582,-0.93
2025-05-22T16:33:23.582,-0.61
2025-05-22T16:33:23.582,-0.39
2025-05-22T16:33:23.582,-0.31
2025-05-22T16:33:23.582,-0.31
2025-05-22T16:33:23.582,-0.32
2025-05-22T16:33:23.582,-0.31
2025-05-22T16:33:23.582,-0.29
2025-05-22T16:33:23.582,-0.26
2025-05-22T16:33:23.582,-0.24
2025-05-22T16:33:23.582,-0.23
2025-05-22T16:33:23.582,-0.24
2025-05-22T16:33:23.582,-0.25
2025-05-22T16:33:23.582,-0.25
2025-05-22T16:33:23.582,-0.21
2025-05-22T16:33:23.582,-0.18
2025-05-22T16:33:23.582,-0.18
2025-05-22T16:33:23.582,-0.17
2025-05-22T16:33:23.582,-0.14
2025-05-22T16:33:23.582,-0.11
2025-05-22T16:33:23.582,-0.10
2025-05-22T16:33:23.582,-0.10
2025-05-22T16:33:23.582,-0.09
2025-05-22T16:33:23.582,-0.09
2025-05-22T16:33:23.582,-0.07
2025-05-22T16:33:23.582,-0.02
2025-05-22T16:33:23.582,0.01
2025-05-22T16:33:23.582,0.01
2025-05-22T16:33:23.582,0.00
2025-05-22T16:33:23.582,-0.01
2025-05-22T16:33:23.582,0.01
2025-05-22T16:33:23.582,0.04
2025-05-22T16:33:23.582,0.07
2025-05-22T16:33:23.582,0.09
2025-05-22T16:33:23.582,0.11
2025-05-22T16:33:23.582,0.14
2025-05-22T16:33:23.582,0.18
2025-05-22T16:33:23.582,0.20
2025-05-22T16:33:23.582,0.21
2025-05-22T16:33:23.582,0.23
2025-05-22T16:33:23.582,0.26
2025-05-22T16:33:23.582,0.31
2025-05-22T16:33:23.582,0.38
2025-05-22T16:33:23.582,0.43
2025-05-22T16:33:23.582,0.47
2025-05-22T16:33:23.582,0.49
2025-05-22T16:33:23.582,0.52
2025-05-22T16:33:23.582,0.57
2025-05-22T16:33:23.582,0.61
2025-05-22T16:33:23.582,0.65
2025-05-22T16:33:23.582,0.70
2025-05-22T16:33:23.582,0.73
2025-05-22T16:33:23.582,0.76
2025-05-22T16:33:23.582,0.78
2025-05-22T16:33:23.582,0.80
2025-05-22T16:33:23.582,0.81
2025-05-22T16:33:23.582,0.81
2025-05-22T16:33:23.582,0.81
2025-05-22T16:33:23.582,0.80
2025-05-22T16:33:23.582,0.78
2025-05-22T16:33:23.582,0.75
2025-05-22T16:33:23.582,0.70
2025-05-22T16:33:23.582,0.65
2025-05-22T16:33:23.582,0.63
2025-05-22T16:33:23.582,0.57
2025-05-22T16:33:23.582,0.50
2025-05-22T16:33:23.582,0.43
2025-05-22T16:33:23.582,0.35
2025-05-22T16:33:23.582,0.27
2025-05-22T16:33:23.582,0.19
2025-05-22T16:33:23.582,0.11
2025-05-22T16:33:23.582,0.05
2025-05-22T16:33:23.582,0.00
2025-05-22T16:33:23.582,-0.05
2025-05-22T16:33:23.582,-0.10
2025-05-22T16:33:23.582,-0.14
2025-05-22T16:33:23.582,-0.18
2025-05-22T16:33:23.582,-0.22
2025-05-22T16:33:23.582,-0.26
2025-05-22T16:33:23.582,-0.29
2025-05-22T16:33:23.582,-0.31
2025-05-22T16:33:23.582,-0.31
2025-05-22T16:33:23.582,-0.29
2025-05-22T16:33:23.582,-0.28
2025-05-22T16:33:23.582,-0.28
2025-05-22T16:33:23.582,-0.30
2025-05-22T16:33:23.582,-0.32
2025-05-22T16:33:23.582,-0.32
2025-05-22T16:33:23.582,-0.30
2025-05-22T16:33:23.582,-0.26
2025-05-22T16:33:23.582,-0.27
2025-05-22T16:33:23.582,-0.28
2025-05-22T16:33:23.582,-0.25
2025-05-22T16:33:23.582,-0.23
2025-05-22T16:33:23.582,-0.21
2025-05-22T16:33:23.582,-0.22
2025-05-22T16:33:23.582,-0.22
2025-05-22T16:33:23.582,-0.21
2025-05-22T16:33:23.582,-0.19
2025-05-22T16:33:23.582,-0.19
2025-05-22T16:33:23.582,-0.20
2025-05-22T16:33:23.582,-0.18
2025-05-22T16:33:23.582,-0.17
2025-05-22T16:33:23.582,-0.17
2025-05-22T16:33:23.582,-0.18
2025-05-22T16:33:23.582,-0.16
2025-05-22T16:33:23.582,-0.15
2025-05-22T16:33:23.582,-0.16
2025-05-22T16:33:23.582,-0.18
2025-05-22T16:33:23.582,-0.19
2025-05-22T16:33:23.582,-0.18
2025-05-22T16:33:23.582,-0.17
2025-05-22T16:33:23.582,-0.21
2025-05-22T16:33:23.582,-0.23
2025-05-22T16:33:23.582,-0.23
2025-05-22T16:33:23.582,-0.23
2025-05-22T16:33:23.582,-0.23
2025-05-22T16:33:23.582,-0.23
2025-05-22T16:33:23.582,-0.23
2025-05-22T16:33:23.582,-0.23
2025-05-22T16:33:23.582,-0.23
2025-05-22T16:33:23.582,-0.23
2025-05-22T16:33:23.582,-0.25
2025-05-22T16:33:23.582,-0.27
2025-05-22T16:33:23.582,-0.28
2025-05-22T16:33:23.582,-0.28
2025-05-22T16:33:23.582,-0.28
2025-05-22T16:33:23.582,-0.28
2025-05-22T16:33:23.582,-0.29
2025-05-22T16:33:23.582,-0.29
2025-05-22T16:33:23.586,-0.28
2025-05-22T16:33:23.590,-0.26
2025-05-22T16:33:23.593,-0.26
2025-05-22T16:33:23.597,-0.27
2025-05-22T16:33:23.601,-0.29
2025-05-22T16:33:23.605,-0.30
2025-05-22T16:33:23.608,-0.30
2025-05-22T16:33:23.612,-0.29
2025-05-22T16:33:23.616,-0.30
2025-05-22T16:33:23.620,-0.31
2025-05-22T16:33:23.623,-0.31
2025-05-22T16:33:23.627,-0.31
2025-05-22T16:33:23.631,-0.31
2025-05-22T16:33:23.635,-0.30
2025-05-22T16:33:23.638,-0.30
2025-05-22T16:33:23.642,-0.29
2025-05-22T16:33:23.646,-0.29
2025-05-22T16:33:23.650,-0.30
2025-05-22T16:33:23.653,-0.30
2025-05-22T16:33:23.657,-0.31
2025-05-22T16:33:23.661,-0.31
2025-05-22T16:33:23.665,-0.29
2025-05-22T16:33:23.668,-0.29
2025-05-22T16:33:23.672,-0.30
2025-05-22T16:33:23.676,-0.31
2025-05-22T16:33:23.680,-0.32
2025-05-22T16:33:23.683,-0.32
2025-05-22T16:33:23.687,-0.30
2025-05-22T16:33:23.691,-0.30
2025-05-22T16:33:23.695,-0.31
2025-05-22T16:33:23.698,-0.33
2025-05-22T16:33:23.702,-0.33
2025-05-22T16:33:23.706,-0.30
2025-05-22T16:33:23.710,-0.29
2025-05-22T16:33:23.713,-0.31
2025-05-22T16:33:23.717,-0.32
2025-05-22T16:33:23.721,-0.32
2025-05-22T16:33:23.725,-0.31
2025-05-22T16:33:23.728,-0.28
2025-05-22T16:33:23.732,-0.25
2025-05-22T16:33:23.736,-0.25
2025-05-22T16:33:23.740,-0.23
2025-05-22T16:33:23.743,-0.17
2025-05-22T16:33:23.747,-0.12
2025-05-22T16:33:23.751,-0.05
2025-05-22T16:33:23.755,-0.00
2025-05-22T16:33:23.758,-0.00
2025-05-22T16:33:23.762,0.00
2025-05-22T16:33:23.766,0.01
2025-05-22T16:33:23.770,-0.01
2025-05-22T16:33:23.773,-0.06
2025-05-22T16:33:23.777,-0.10
2025-05-22T16:33:23.781,-0.17
2025-05-22T16:33:23.785,-0.24
2025-05-22T16:33:23.785,-0.27
2025-05-22T16:33:23.785,-0.28
2025-05-22T16:33:23.789,-0.30
2025-05-22T16:33:23.793,-0.37
2025-05-22T16:33:23.796,-0.41
2025-05-22T16:33:23.800,-0.43
2025-05-22T16:33:23.804,-0.44
2025-05-22T16:33:23.808,-0.46
2025-05-22T16:33:23.811,-0.45
2025-05-22T16:33:23.815,-0.45
2025-05-22T16:33:23.819,-0.45
2025-05-22T16:33:23.823,-0.45
2025-05-22T16:33:23.826,-0.44
2025-05-22T16:33:23.830,-0.42
2025-05-22T16:33:23.834,-0.42
2025-05-22T16:33:23.838,-0.42
2025-05-22T16:33:23.841,-0.41
2025-05-22T16:33:23.845,-0.41
2025-05-22T16:33:23.849,-0.40
2025-05-22T16:33:23.853,-0.41
2025-05-22T16:33:23.856,-0.44
2025-05-22T16:33:23.860,-0.47
2025-05-22T16:33:23.864,-0.44
2025-05-22T16:33:23.868,-0.22
2025-05-22T16:33:23.871,0.18
2025-05-22T16:33:23.875,0.58
2025-05-22T16:33:23.879,1.01
2025-05-22T16:33:23.883,1.54
2025-05-22T16:33:23.886,2.14
2025-05-22T16:33:23.890,2.82
2025-05-22T16:33:23.894,3.13
2025-05-22T16:33:23.898,2.55
2025-05-22T16:33:23.901,0.96
2025-05-22T16:33:23.905,-0.66
2025-05-22T16:33:23.909,-1.38
2025-05-22T16:33:23.913,-1.59
2025-05-22T16:33:23.916,-1.48
2025-05-22T16:33:23.920,-1.38
2025-05-22T16:33:23.924,-1.28
2025-05-22T16:33:23.928,-1.12
2025-05-22T16:33:23.931,-0.88
2025-05-22T16:33:23.935,-0.59
2025-05-22T16:33:23.939,-0.39
2025-05-22T16:33:23.943,-0.31
2025-05-22T16:33:23.946,-0.31
2025-05-22T16:33:23.950,-0.30
2025-05-22T16:33:23.954,-0.30
2025-05-22T16:33:23.958,-0.28
2025-05-22T16:33:23.961,-0.25
2025-05-22T16:33:23.965,-0.22
2025-05-22T16:33:23.969,-0.21
2025-05-22T16:33:23.973,-0.21
2025-05-22T16:33:23.976,-0.21
2025-05-22T16:33:23.980,-0.20
2025-05-22T16:33:23.984,-0.17
2025-05-22T16:33:23.988,-0.14
2025-05-22T16:33:23.991,-0.12
2025-05-22T16:33:23.995,-0.11
2025-05-22T16:33:23.999,-0.09
2025-05-22T16:33:24.003,-0.08
2025-05-22T16:33:24.006,-0.06
2025-05-22T16:33:24.010,-0.05
2025-05-22T16:33:24.014,-0.05
2025-05-22T16:33:24.018,-0.04
2025-05-22T16:33:24.021,-0.04
2025-05-22T16:33:24.025,-0.03
2025-05-22T16:33:24.029,-0.01
2025-05-22T16:33:24.033,-0.01
2025-05-22T16:33:24.036,0.01
2025-05-22T16:33:24.040,0.04
2025-05-22T16:33:24.044,0.07
2025-05-22T16:33:24.048,0.08
2025-05-22T16:33:24.051,0.08
2025-05-22T16:33:24.055,0.10
2025-05-22T16:33:24.059,0.13
2025-05-22T16:33:24.063,0.15
2025-05-22T16:33:24.066,0.18
2025-05-22T16:33:24.070,0.19
2025-05-22T16:33:24.074,0.21
2025-05-22T16:33:24.078,0.23
2025-05-22T16:33:24.081,0.27
2025-05-22T16:33:24.085,0.31
2025-05-22T16:33:24.089,0.35
2025-05-22T16:33:24.093,0.38
2025-05-22T16:33:24.096,0.41
2025-05-22T16:33:24.100,0.44
2025-05-22T16:33:24.104,0.49
2025-05-22T16:33:24.108,0.54
2025-05-22T16:33:24.111,0.58
2025-05-22T16:33:24.115,0.60
2025-05-22T16:33:24.119,0.63
2025-05-22T16:33:24.123,0.66
2025-05-22T16:33:24.126,0.70
2025-05-22T16:33:24.130,0.72
2025-05-22T16:33:24.134,0.72
2025-05-22T16:33:24.138,0.72
2025-05-22T16:33:24.141,0.70
2025-05-22T16:33:24.145,0.69
2025-05-22T16:33:24.149,0.67
2025-05-22T16:33:24.153,0.63
2025-05-22T16:33:24.156,0.58
2025-05-22T16:33:24.160,0.54
2025-05-22T16:33:24.164,0.50
2025-05-22T16:33:24.168,0.45
2025-05-22T16:33:24.171,0.36
2025-05-22T16:33:24.175,0.28
2025-05-22T16:33:24.179,0.22
2025-05-22T16:33:24.183,0.15
2025-05-22T16:33:24.186,0.07
2025-05-22T16:33:24.190,-0.00
2025-05-22T16:33:24.194,-0.07
2025-05-22T16:33:24.198,-0.13
2025-05-22T16:33:24.201,-0.19
2025-05-22T16:33:24.205,-0.25
2025-05-22T16:33:24.209,-0.30
2025-05-22T16:33:24.213,-0.34
2025-05-22T16:33:24.216,-0.37
2025-05-22T16:33:24.220,-0.40
2025-05-22T16:33:24.224,-0.42
2025-05-22T16:33:24.228,-0.42
2025-05-22T16:33:24.231,-0.43
2025-05-22T16:33:24.235,-0.44
2025-05-22T16:33:24.239,-0.44
2025-05-22T16:33:24.243,-0.44
2025-05-22T16:33:24.246,-0.44
2025-05-22T16:33:24.250,-0.43
2025-05-22T16:33:24.254,-0.44
2025-05-22T16:33:24.258,-0.43
2025-05-22T16:33:24.261,-0.42
2025-05-22T16:33:24.265,-0.40
2025-05-22T16:33:24.269,-0.38
2025-05-22T16:33:24.273,-0.37
2025-05-22T16:33:24.276,-0.37
2025-05-22T16:33:24.280,-0.36
2025-05-22T16:33:24.284,-0.35
2025-05-22T16:33:24.288,-0.33
2025-05-22T16:33:24.291,-0.33
2025-05-22T16:33:24.295,-0.32
2025-05-22T16:33:24.299,-0.31
2025-05-22T16:33:24.303,-0.30
2025-05-22T16:33:24.306,-0.29
2025-05-22T16:33:24.310,-0.29
2025-05-22T16:33:24.314,-0.29
2025-05-22T16:33:24.318,-0.29
2025-05-22T16:33:24.321,-0.29
2025-05-22T16:33:24.325,-0.29
2025-05-22T16:33:24.329,-0.29
2025-05-22T16:33:24.333,-0.29
2025-05-22T16:33:24.336,-0.29
2025-05-22T16:33:24.340,-0.28
2025-05-22T16:33:24.344,-0.29
2025-05-22T16:33:24.348,-0.30
2025-05-22T16:33:24.351,-0.31
2025-05-22T16:33:24.355,-0.31
2025-05-22T16:33:24.359,-0.31
2025-05-22T16:33:24.363,-0.33
2025-05-22T16:33:24.366,-0.34
2025-05-22T16:33:24.370,-0.35
2025-05-22T16:33:24.374,-0.36
2025-05-22T16:33:24.378,-0.36
2025-05-22T16:33:24.381,-0.36
2025-05-22T16:33:24.385,-0.36
2025-05-22T16:33:24.389,-0.36
2025-05-22T16:33:24.393,-0.38
2025-05-22T16:33:24.396,-0.39
2025-05-22T16:33:24.400,-0.40
2025-05-22T16:33:24.404,-0.40
2025-05-22T16:33:24.408,-0.40
2025-05-22T16:33:24.411,-0.41
2025-05-22T16:33:24.415,-0.40
2025-05-22T16:33:24.419,-0.40
2025-05-22T16:33:24.423,-0.41
2025-05-22T16:33:24.426,-0.40
2025-05-22T16:33:24.430,-0.40
2025-05-22T16:33:24.434,-0.40
2025-05-22T16:33:24.438,-0.41
2025-05-22T16:33:24.441,-0.40
2025-05-22T16:33:24.445,-0.40
2025-05-22T16:33:24.449,-0.41
2025-05-22T16:33:24.453,-0.41
2025-05-22T16:33:24.456,-0.40
2025-05-22T16:33:24.460,-0.40
2025-05-22T16:33:24.464,-0.40
2025-05-22T16:33:24.468,-0.40
2025-05-22T16:33:24.471,-0.40
2025-05-22T16:33:24.475,-0.41
2025-05-22T16:33:24.479,-0.41
2025-05-22T16:33:24.483,-0.40
2025-05-22T16:33:24.486,-0.40
2025-05-22T16:33:24.490,-0.40
2025-05-22T16:33:24.494,-0.40
2025-05-22T16:33:24.498,-0.40
2025-05-22T16:33:24.501,-0.41
2025-05-22T16:33:24.505,-0.41
2025-05-22T16:33:24.509,-0.40
2025-05-22T16:33:24.513,-0.39
2025-05-22T16:33:24.516,-0.41
2025-05-22T16:33:24.520,-0.42
2025-05-22T16:33:24.524,-0.40
2025-05-22T16:33:24.528,-0.39
2025-05-22T16:33:24.531,-0.40
2025-05-22T16:33:24.535,-0.40
2025-05-22T16:33:24.539,-0.39
2025-05-22T16:33:24.543,-0.38
2025-05-22T16:33:24.546,-0.38
2025-05-22T16:33:24.550,-0.39
2025-05-22T16:33:24.554,-0.40
2025-05-22T16:33:24.558,-0.41
2025-05-22T16:33:24.561,-0.40
2025-05-22T16:33:24.565,-0.39
2025-05-22T16:33:24.569,-0.39
2025-05-22T16:33:24.573,-0.40
2025-05-22T16:33:24.576,-0.41
2025-05-22T16:33:24.580,-0.39
2025-05-22T16:33:24.584,-0.38
2025-05-22T16:33:24.588,-0.39
2025-05-22T16:33:24.591,-0.39
2025-05-22T16:33:24.595,-0.38
2025-05-22T16:33:24.599,-0.39
2025-05-22T16:33:24.603,-0.39
2025-05-22T16:33:24.606,-0.38
2025-05-22T16:33:24.610,-0.38
2025-05-22T16:33:24.614,-0.39
2025-05-22T16:33:24.618,-0.40
2025-05-22T16:33:24.621,-0.39
2025-05-22T16:33:24.625,-0.39
2025-05-22T16:33:24.629,-0.39
2025-05-22T16:33:24.633,-0.39
2025-05-22T16:33:24.636,-0.37
2025-05-22T16:33:24.640,-0.38
2025-05-22T16:33:24.644,-0.39
2025-05-22T16:33:24.648,-0.38
2025-05-22T16:33:24.651,-0.38
2025-05-22T16:33:24.655,-0.39
2025-05-22T16:33:24.659,-0.40
2025-05-22T16:33:24.663,-0.39
2025-05-22T16:33:24.666,-0.39
2025-05-22T16:33:24.670,-0.39
2025-05-22T16:33:24.674,-0.39
2025-05-22T16:33:24.678,-0.39
2025-05-22T16:33:24.681,-0.40
2025-05-22T16:33:24.685,-0.39
2025-05-22T16:33:24.689,-0.39
2025-05-22T16:33:24.693,-0.38
2025-05-22T16:33:24.696,-0.39
2025-05-22T16:33:24.700,-0.38
2025-05-22T16:33:24.704,-0.38
2025-05-22T16:33:24.708,-0.37
2025-05-22T16:33:24.711,-0.37
2025-05-22T16:33:24.715,-0.38
2025-05-22T16:33:24.719,-0.37
2025-05-22T16:33:24.723,-0.37
2025-05-22T16:33:24.726,-0.37
2025-05-22T16:33:24.730,-0.37
2025-05-22T16:33:24.734,-0.38
2025-05-22T16:33:24.738,-0.38
2025-05-22T16:33:24.741,-0.38
2025-05-22T16:33:24.745,-0.37
2025-05-22T16:33:24.749,-0.36
2025-05-22T16:33:24.753,-0.36
2025-05-22T16:33:24.756,-0.37
2025-05-22T16:33:24.760,-0.36
2025-05-22T16:33:24.764,-0.35
2025-05-22T16:33:24.768,-0.36
2025-05-22T16:33:24.771,-0.36
2025-05-22T16:33:24.775,-0.37
2025-05-22T16:33:24.779,-0.36
2025-05-22T16:33:24.783,-0.35
2025-05-22T16:33:24.786,-0.34
2025-05-22T16:33:24.790,-0.35
2025-05-22T16:33:24.794,-0.37
2025-05-22T16:33:24.798,-0.38
2025-05-22T16:33:24.801,-0.37
2025-05-22T16:33:24.805,-0.35
2025-05-22T16:33:24.809,-0.34
2025-05-22T16:33:24.813,-0.32
2025-05-22T16:33:24.816,-0.32
2025-05-22T16:33:24.820,-0.33
2025-05-22T16:33:24.824,-0.33
2025-05-22T16:33:24.828,-0.32
2025-05-22T16:33:24.831,-0.32
2025-05-22T16:33:24.835,-0.32
2025-05-22T16:33:24.839,-0.29
2025-05-22T16:33:24.843,-0.25
2025-05-22T16:33:24.846,-0.21
2025-05-22T16:33:24.850,-0.20
2025-05-22T16:33:24.854,-0.21
2025-05-22T16:33:24.858,-0.18
2025-05-22T16:33:24.861,-0.12
2025-05-22T16:33:24.865,-0.08
2025-05-22T16:33:24.869,-0.01
2025-05-22T16:33:24.873,0.04
2025-05-22T16:33:24.876,0.04
2025-05-22T16:33:24.880,0.04
2025-05-22T16:33:24.884,0.04
2025-05-22T16:33:24.888,-0.00
2025-05-22T16:33:24.891,-0.07
2025-05-22T16:33:24.895,-0.14
2025-05-22T16:33:24.899,-0.19
2025-05-22T16:33:24.903,-0.23
2025-05-22T16:33:24.906,-0.26
2025-05-22T16:33:24.910,-0.27
2025-05-22T16:33:24.914,-0.28
2025-05-22T16:33:24.918,-0.33
2025-05-22T16:33:24.921,-0.36
2025-05-22T16:33:24.925,-0.38
2025-05-22T16:33:24.929,-0.39
2025-05-22T16:33:24.933,-0.40
2025-05-22T16:33:24.936,-0.39
2025-05-22T16:33:24.940,-0.37
2025-05-22T16:33:24.944,-0.36
2025-05-22T16:33:24.948,-0.37
2025-05-22T16:33:24.951,-0.36
2025-05-22T16:33:24.955,-0.35
2025-05-22T16:33:24.959,-0.35
2025-05-22T16:33:24.963,-0.35
2025-05-22T16:33:24.966,-0.35
2025-05-22T16:33:24.970,-0.36
2025-05-22T16:33:24.974,-0.36
2025-05-22T16:33:24.978,-0.37
2025-05-22T16:33:24.981,-0.31
2025-05-22T16:33:24.985,-0.04
2025-05-22T16:33:24.989,0.36
2025-05-22T16:33:24.993,0.73
2025-05-22T16:33:24.996,1.14
2025-05-22T16:33:25.000,1.65
2025-05-22T16:33:25.004,2.24
2025-05-22T16:33:25.008,2.93
2025-05-22T16:33:25.011,3.26
2025-05-22T16:33:25.015,2.77
2025-05-22T16:33:25.019,1.19
2025-05-22T16:33:25.023,-0.43
2025-05-22T16:33:25.026,-1.17
2025-05-22T16:33:25.030,-1.35
2025-05-22T16:33:25.034,-1.24
2025-05-22T16:33:25.038,-1.15
2025-05-22T16:33:25.041,-1.04
2025-05-22T16:33:25.045,-0.86
2025-05-22T16:33:25.049,-0.59
2025-05-22T16:33:25.053,-0.33
2025-05-22T16:33:25.056,-0.18
2025-05-22T16:33:25.060,-0.14
2025-05-22T16:33:25.064,-0.16
2025-05-22T16:33:25.068,-0.16
2025-05-22T16:33:25.071,-0.16
2025-05-22T16:33:25.075,-0.13
2025-05-22T16:33:25.079,-0.09
2025-05-22T16:33:25.083,-0.05
2025-05-22T16:33:25.086,-0.02
2025-05-22T16:33:25.090,-0.01
2025-05-22T16:33:25.094,-0.02
2025-05-22T16:33:25.098,-0.00
2025-05-22T16:33:25.101,0.01
2025-05-22T16:33:25.105,0.03
2025-05-22T16:33:25.109,0.05
2025-05-22T16:33:25.113,0.06
2025-05-22T16:33:25.116,0.05
2025-05-22T16:33:25.120,0.07
2025-05-22T16:33:25.124,0.10
2025-05-22T16:33:25.128,0.12
2025-05-22T16:33:25.131,0.11
2025-05-22T16:33:25.135,0.11
2025-05-22T16:33:25.139,0.13
2025-05-22T16:33:25.143,0.16
2025-05-22T16:33:25.146,0.17
2025-05-22T16:33:25.150,0.17
2025-05-22T16:33:25.154,0.19
2025-05-22T16:33:25.158,0.22
2025-05-22T16:33:25.161,0.23
2025-05-22T16:33:25.165,0.25
2025-05-22T16:33:25.169,0.27
2025-05-22T16:33:25.173,0.28
2025-05-22T16:33:25.176,0.30
2025-05-22T16:33:25.180,0.31
2025-05-22T16:33:25.184,0.35
2025-05-22T16:33:25.184,0.37
2025-05-22T16:33:25.184,0.38
2025-05-22T16:33:25.184,0.39
2025-05-22T16:33:25.184,0.43
2025-05-22T16:33:25.184,0.49
2025-05-22T16:33:25.187,0.54
2025-05-22T16:33:25.191,0.57
2025-05-22T16:33:25.195,0.58
2025-05-22T16:33:25.199,0.61
2025-05-22T16:33:25.202,0.66
2025-05-22T16:33:25.206,0.70
2025-05-22T16:33:25.210,0.73
2025-05-22T16:33:25.214,0.76
2025-05-22T16:33:25.217,0.81
2025-05-22T16:33:25.221,0.84
2025-05-22T16:33:25.225,0.87
2025-05-22T16:33:25.229,0.91
2025-05-22T16:33:25.232,0.92
2025-05-22T16:33:25.236,0.91
2025-05-22T16:33:25.240,0.93
2025-05-22T16:33:25.244,0.95
2025-05-22T16:33:25.247,0.94
2025-05-22T16:33:25.251,0.91
2025-05-22T16:33:25.255,0.87
2025-05-22T16:33:25.259,0.84
2025-05-22T16:33:25.262,0.80
2025-05-22T16:33:25.266,0.74
2025-05-22T16:33:25.270,0.68
2025-05-22T16:33:25.274,0.62
2025-05-22T16:33:25.277,0.56
2025-05-22T16:33:25.281,0.51
2025-05-22T16:33:25.285,0.45
2025-05-22T16:33:25.289,0.37
2025-05-22T16:33:25.292,0.28
2025-05-22T16:33:25.296,0.22
2025-05-22T16:33:25.300,0.16
2025-05-22T16:33:25.304,0.09
2025-05-22T16:33:25.307,0.04
2025-05-22T16:33:25.311,-0.03
2025-05-22T16:33:25.315,-0.08
2025-05-22T16:33:25.319,-0.12
2025-05-22T16:33:25.322,-0.14
2025-05-22T16:33:25.326,-0.16
2025-05-22T16:33:25.330,-0.19
2025-05-22T16:33:25.334,-0.22
2025-05-22T16:33:25.337,-0.23
2025-05-22T16:33:25.341,-0.23
2025-05-22T16:33:25.345,-0.23
2025-05-22T16:33:25.349,-0.22
2025-05-22T16:33:25.352,-0.22
2025-05-22T16:33:25.356,-0.23
2025-05-22T16:33:25.360,-0.21
2025-05-22T16:33:25.364,-0.19
2025-05-22T16:33:25.367,-0.18
2025-05-22T16:33:25.371,-0.19
2025-05-22T16:33:25.375,-0.21
2025-05-22T16:33:25.379,-0.21
2025-05-22T16:33:25.382,-0.20
2025-05-22T16:33:25.386,-0.18
2025-05-22T16:33:25.390,-0.19
2025-05-22T16:33:25.394,-0.19
2025-05-22T16:33:25.397,-0.18
2025-05-22T16:33:25.401,-0.17
2025-05-22T16:33:25.405,-0.16
2025-05-22T16:33:25.409,-0.14
2025-05-22T16:33:25.412,-0.13
2025-05-22T16:33:25.416,-0.14
2025-05-22T16:33:25.420,-0.16
2025-05-22T16:33:25.424,-0.17
2025-05-22T16:33:25.427,-0.16
2025-05-22T16:33:25.431,-0.16
2025-05-22T16:33:25.435,-0.15
2025-05-22T16:33:25.439,-0.15
2025-05-22T16:33:25.442,-0.16
2025-05-22T16:33:25.446,-0.16
2025-05-22T16:33:25.450,-0.15
2025-05-22T16:33:25.454,-0.16
2025-05-22T16:33:25.457,-0.16
2025-05-22T16:33:25.461,-0.18
2025-05-22T16:33:25.465,-0.19
2025-05-22T16:33:25.469,-0.19
2025-05-22T16:33:25.472,-0.20
2025-05-22T16:33:25.476,-0.20
2025-05-22T16:33:25.480,-0.19
2025-05-22T16:33:25.484,-0.18
2025-05-22T16:33:25.487,-0.19
2025-05-22T16:33:25.491,-0.22
2025-05-22T16:33:25.495,-0.24
2025-05-22T16:33:25.499,-0.24
2025-05-22T16:33:25.502,-0.22
2025-05-22T16:33:25.506,-0.23
2025-05-22T16:33:25.510,-0.25
2025-05-22T16:33:25.514,-0.27
2025-05-22T16:33:25.517,-0.26
2025-05-22T16:33:25.521,-0.26
2025-05-22T16:33:25.525,-0.26
2025-05-22T16:33:25.529,-0.27
2025-05-22T16:33:25.532,-0.28
2025-05-22T16:33:25.536,-0.28
2025-05-22T16:33:25.540,-0.28
2025-05-22T16:33:25.544,-0.28
2025-05-22T16:33:25.547,-0.28
2025-05-22T16:33:25.551,-0.28
2025-05-22T16:33:25.555,-0.29
2025-05-22T16:33:25.559,-0.31
2025-05-22T16:33:25.562,-0.31
2025-05-22T16:33:25.566,-0.31
2025-05-22T16:33:25.570,-0.31
2025-05-22T16:33:25.574,-0.31
2025-05-22T16:33:25.577,-0.31
2025-05-22T16:33:25.581,-0.31
2025-05-22T16:33:25.585,-0.31
2025-05-22T16:33:25.589,-0.30
2025-05-22T16:33:25.592,-0.31
2025-05-22T16:33:25.596,-0.32
2025-05-22T16:33:25.600,-0.31
2025-05-22T16:33:25.604,-0.30
2025-05-22T16:33:25.607,-0.30
2025-05-22T16:33:25.611,-0.30
2025-05-22T16:33:25.615,-0.32
2025-05-22T16:33:25.619,-0.33
2025-05-22T16:33:25.622,-0.33
2025-05-22T16:33:25.626,-0.33
2025-05-22T16:33:25.630,-0.34
2025-05-22T16:33:25.634,-0.34
2025-05-22T16:33:25.637,-0.34
2025-05-22T16:33:25.641,-0.33
2025-05-22T16:33:25.645,-0.34
2025-05-22T16:33:25.649,-0.35
2025-05-22T16:33:25.652,-0.35
2025-05-22T16:33:25.656,-0.36
2025-05-22T16:33:25.660,-0.35
2025-05-22T16:33:25.664,-0.33
2025-05-22T16:33:25.667,-0.33
2025-05-22T16:33:25.671,-0.34
2025-05-22T16:33:25.675,-0.33
2025-05-22T16:33:25.679,-0.29
2025-05-22T16:33:25.682,-0.27
2025-05-22T16:33:25.686,-0.25
2025-05-22T16:33:25.690,-0.25
2025-05-22T16:33:25.694,-0.22
2025-05-22T16:33:25.697,-0.15
2025-05-22T16:33:25.701,-0.11
2025-05-22T16:33:25.705,-0.05
2025-05-22T16:33:25.709,-0.02
2025-05-22T16:33:25.712,-0.03
2025-05-22T16:33:25.716,-0.03
2025-05-22T16:33:25.720,-0.03
2025-05-22T16:33:25.724,-0.07
2025-05-22T16:33:25.727,-0.11
2025-05-22T16:33:25.731,-0.17
2025-05-22T16:33:25.735,-0.24
2025-05-22T16:33:25.739,-0.28
2025-05-22T16:33:25.742,-0.30
2025-05-22T16:33:25.746,-0.32
2025-05-22T16:33:25.750,-0.36
2025-05-22T16:33:25.754,-0.42
2025-05-22T16:33:25.757,-0.46
2025-05-22T16:33:25.761,-0.48
2025-05-22T16:33:25.765,-0.48
2025-05-22T16:33:25.769,-0.48
2025-05-22T16:33:25.772,-0.48
2025-05-22T16:33:25.776,-0.47
2025-05-22T16:33:25.780,-0.47
2025-05-22T16:33:25.784,-0.47
2025-05-22T16:33:25.787,-0.46
2025-05-22T16:33:25.791,-0.46
2025-05-22T16:33:25.795,-0.47
2025-05-22T16:33:25.799,-0.47
2025-05-22T16:33:25.802,-0.45
2025-05-22T16:33:25.806,-0.45
2025-05-22T16:33:25.810,-0.45
2025-05-22T16:33:25.814,-0.47
2025-05-22T16:33:25.817,-0.48
2025-05-22T16:33:25.821,-0.49
2025-05-22T16:33:25.825,-0.40
2025-05-22T16:33:25.829,-0.09
2025-05-22T16:33:25.832,0.31
2025-05-22T16:33:25.836,0.71
2025-05-22T16:33:25.840,1.19
2025-05-22T16:33:25.844,1.76
2025-05-22T16:33:25.847,2.39
2025-05-22T16:33:25.851,3.00
2025-05-22T16:33:25.855,3.04
2025-05-22T16:33:25.859,2.12
2025-05-22T16:33:25.859,0.35
2025-05-22T16:33:25.859,-0.99
2025-05-22T16:33:25.863,-1.50
2025-05-22T16:33:25.867,-1.55
2025-05-22T16:33:25.870,-1.41
2025-05-22T16:33:25.874,-1.35
2025-05-22T16:33:25.878,-1.23
2025-05-22T16:33:25.882,-1.03
2025-05-22T16:33:25.885,-0.77
2025-05-22T16:33:25.889,-0.51
2025-05-22T16:33:25.893,-0.39
2025-05-22T16:33:25.897,-0.37
2025-05-22T16:33:25.900,-0.36
2025-05-22T16:33:25.904,-0.34
2025-05-22T16:33:25.908,-0.31
2025-05-22T16:33:25.912,-0.29
2025-05-22T16:33:25.915,-0.26
2025-05-22T16:33:25.919,-0.23
2025-05-22T16:33:25.923,-0.21
2025-05-22T16:33:25.927,-0.19
2025-05-22T16:33:25.930,-0.16
2025-05-22T16:33:25.930,-0.18
2025-05-22T16:33:25.930,-0.17
2025-05-22T16:33:25.930,-0.15
2025-05-22T16:33:25.930,-0.14
2025-05-22T16:33:25.930,-0.14
2025-05-22T16:33:25.930,-0.13
2025-05-22T16:33:25.930,-0.12
2025-05-22T16:33:25.930,-0.09
2025-05-22T16:33:25.930,-0.07
2025-05-22T16:33:25.930,-0.06
2025-05-22T16:33:25.930,-0.04
2025-05-22T16:33:25.930,-0.03
2025-05-22T16:33:25.930,-0.01
2025-05-22T16:33:25.930,-0.01
2025-05-22T16:33:25.930,-0.00
2025-05-22T16:33:25.930,0.02
2025-05-22T16:33:25.930,0.05
2025-05-22T16:33:25.930,0.06
2025-05-22T16:33:25.934,0.08
2025-05-22T16:33:25.937,0.11
2025-05-22T16:33:25.941,0.12
2025-05-22T16:33:25.945,0.13
2025-05-22T16:33:25.949,0.14
2025-05-22T16:33:25.952,0.17
2025-05-22T16:33:25.956,0.20
2025-05-22T16:33:25.960,0.23
2025-05-22T16:33:25.964,0.25
2025-05-22T16:33:25.967,0.28
2025-05-22T16:33:25.971,0.32
2025-05-22T16:33:25.975,0.37
2025-05-22T16:33:25.979,0.41
2025-05-22T16:33:25.982,0.45
2025-05-22T16:33:25.986,0.48
2025-05-22T16:33:25.990,0.52
2025-05-22T16:33:25.994,0.57
2025-05-22T16:33:25.997,0.62
2025-05-22T16:33:26.001,0.66
2025-05-22T16:33:26.005,0.69
2025-05-22T16:33:26.009,0.72
2025-05-22T16:33:26.012,0.75
2025-05-22T16:33:26.016,0.77
2025-05-22T16:33:26.020,0.80
2025-05-22T16:33:26.024,0.81
2025-05-22T16:33:26.027,0.80
2025-05-22T16:33:26.031,0.80
2025-05-22T16:33:26.035,0.79
2025-05-22T16:33:26.039,0.75
2025-05-22T16:33:26.042,0.70
2025-05-22T16:33:26.046,0.65
2025-05-22T16:33:26.050,0.60
2025-05-22T16:33:26.054,0.54
2025-05-22T16:33:26.057,0.47
2025-05-22T16:33:26.061,0.39
2025-05-22T16:33:26.065,0.30
2025-05-22T16:33:26.069,0.21
2025-05-22T16:33:26.072,0.14
2025-05-22T16:33:26.076,0.07
2025-05-22T16:33:26.080,-0.02
2025-05-22T16:33:26.084,-0.10
2025-05-22T16:33:26.087,-0.15
2025-05-22T16:33:26.091,-0.21
2025-05-22T16:33:26.095,-0.26
2025-05-22T16:33:26.099,-0.32
2025-05-22T16:33:26.102,-0.35
2025-05-22T16:33:26.106,-0.37
2025-05-22T16:33:26.110,-0.38
2025-05-22T16:33:26.114,-0.39
2025-05-22T16:33:26.117,-0.40
2025-05-22T16:33:26.121,-0.41
2025-05-22T16:33:26.125,-0.41
2025-05-22T16:33:26.129,-0.41
2025-05-22T16:33:26.132,-0.41
2025-05-22T16:33:26.136,-0.41
2025-05-22T16:33:26.140,-0.41
2025-05-22T16:33:26.144,-0.41
2025-05-22T16:33:26.147,-0.40
2025-05-22T16:33:26.151,-0.39
2025-05-22T16:33:26.155,-0.38
2025-05-22T16:33:26.159,-0.38
2025-05-22T16:33:26.162,-0.36
2025-05-22T16:33:26.166,-0.35
2025-05-22T16:33:26.170,-0.34
2025-05-22T16:33:26.174,-0.33
2025-05-22T16:33:26.177,-0.33
2025-05-22T16:33:26.181,-0.32
2025-05-22T16:33:26.185,-0.31
2025-05-22T16:33:26.189,-0.31
2025-05-22T16:33:26.192,-0.30
2025-05-22T16:33:26.196,-0.28
2025-05-22T16:33:26.200,-0.28
2025-05-22T16:33:26.204,-0.28
2025-05-22T16:33:26.207,-0.27
2025-05-22T16:33:26.211,-0.27
2025-05-22T16:33:26.215,-0.27
2025-05-22T16:33:26.219,-0.28
2025-05-22T16:33:26.222,-0.29
2025-05-22T16:33:26.226,-0.29
2025-05-22T16:33:26.230,-0.29
2025-05-22T16:33:26.234,-0.29
2025-05-22T16:33:26.237,-0.29
2025-05-22T16:33:26.241,-0.30
2025-05-22T16:33:26.245,-0.31
2025-05-22T16:33:26.249,-0.31
2025-05-22T16:33:26.252,-0.31
2025-05-22T16:33:26.256,-0.31
2025-05-22T16:33:26.260,-0.32
2025-05-22T16:33:26.264,-0.34
2025-05-22T16:33:26.267,-0.35
2025-05-22T16:33:26.271,-0.33
2025-05-22T16:33:26.275,-0.33
2025-05-22T16:33:26.279,-0.33
2025-05-22T16:33:26.282,-0.35
2025-05-22T16:33:26.286,-0.36
2025-05-22T16:33:26.290,-0.36
2025-05-22T16:33:26.294,-0.36
2025-05-22T16:33:26.297,-0.37
2025-05-22T16:33:26.301,-0.37
2025-05-22T16:33:26.305,-0.38
2025-05-22T16:33:26.309,-0.38
2025-05-22T16:33:26.312,-0.38
2025-05-22T16:33:26.316,-0.39
2025-05-22T16:33:26.320,-0.40
2025-05-22T16:33:26.324,-0.41
2025-05-22T16:33:26.327,-0.40
2025-05-22T16:33:26.331,-0.39
2025-05-22T16:33:26.335,-0.39
2025-05-22T16:33:26.339,-0.40
2025-05-22T16:33:26.342,-0.40
2025-05-22T16:33:26.346,-0.39
2025-05-22T16:33:26.350,-0.39
2025-05-22T16:33:26.354,-0.39
2025-05-22T16:33:26.357,-0.40
2025-05-22T16:33:26.361,-0.40
2025-05-22T16:33:26.365,-0.40
2025-05-22T16:33:26.369,-0.41
2025-05-22T16:33:26.372,-0.39
2025-05-22T16:33:26.376,-0.38
2025-05-22T16:33:26.380,-0.39
2025-05-22T16:33:26.384,-0.40
2025-05-22T16:33:26.387,-0.40
2025-05-22T16:33:26.391,-0.40
2025-05-22T16:33:26.395,-0.40
2025-05-22T16:33:26.399,-0.40
2025-05-22T16:33:26.402,-0.40
2025-05-22T16:33:26.406,-0.39
2025-05-22T16:33:26.410,-0.41
2025-05-22T16:33:26.414,-0.40
2025-05-22T16:33:26.417,-0.39
2025-05-22T16:33:26.421,-0.39
2025-05-22T16:33:26.425,-0.40
2025-05-22T16:33:26.429,-0.41
2025-05-22T16:33:26.432,-0.40
2025-05-22T16:33:26.436,-0.39
2025-05-22T16:33:26.440,-0.39
2025-05-22T16:33:26.444,-0.39
2025-05-22T16:33:26.447,-0.40
2025-05-22T16:33:26.451,-0.39
2025-05-22T16:33:26.455,-0.39
2025-05-22T16:33:26.459,-0.40
2025-05-22T16:33:26.462,-0.41
2025-05-22T16:33:26.466,-0.40
2025-05-22T16:33:26.470,-0.39
2025-05-22T16:33:26.474,-0.38
2025-05-22T16:33:26.477,-0.37
2025-05-22T16:33:26.481,-0.37
2025-05-22T16:33:26.485,-0.37
2025-05-22T16:33:26.489,-0.39
2025-05-22T16:33:26.492,-0.39
2025-05-22T16:33:26.496,-0.39
2025-05-22T16:33:26.500,-0.39
2025-05-22T16:33:26.504,-0.39
2025-05-22T16:33:26.507,-0.38
2025-05-22T16:33:26.511,-0.38
2025-05-22T16:33:26.515,-0.39
2025-05-22T16:33:26.519,-0.38
2025-05-22T16:33:26.522,-0.37
2025-05-22T16:33:26.526,-0.36
2025-05-22T16:33:26.530,-0.36
2025-05-22T16:33:26.534,-0.37
2025-05-22T16:33:26.537,-0.38
2025-05-22T16:33:26.541,-0.38
2025-05-22T16:33:26.545,-0.38
2025-05-22T16:33:26.549,-0.37
2025-05-22T16:33:26.552,-0.36
2025-05-22T16:33:26.556,-0.36
2025-05-22T16:33:26.560,-0.38
2025-05-22T16:33:26.564,-0.39
2025-05-22T16:33:26.567,-0.38
2025-05-22T16:33:26.571,-0.36
2025-05-22T16:33:26.575,-0.32
2025-05-22T16:33:26.579,-0.28
2025-05-22T16:33:26.582,-0.26
2025-05-22T16:33:26.586,-0.26
2025-05-22T16:33:26.590,-0.25
2025-05-22T16:33:26.594,-0.20
2025-05-22T16:33:26.597,-0.14
2025-05-22T16:33:26.601,-0.08
2025-05-22T16:33:26.605,-0.02
2025-05-22T16:33:26.609,-0.00
2025-05-22T16:33:26.612,-0.01
2025-05-22T16:33:26.616,-0.02
2025-05-22T16:33:26.620,-0.06
2025-05-22T16:33:26.624,-0.10
2025-05-22T16:33:26.627,-0.14
2025-05-22T16:33:26.631,-0.20
2025-05-22T16:33:26.635,-0.26
2025-05-22T16:33:26.639,-0.30
2025-05-22T16:33:26.642,-0.33
2025-05-22T16:33:26.646,-0.37
2025-05-22T16:33:26.650,-0.40
2025-05-22T16:33:26.654,-0.43
2025-05-22T16:33:26.657,-0.45
2025-05-22T16:33:26.661,-0.47
2025-05-22T16:33:26.665,-0.46
2025-05-22T16:33:26.669,-0.44
2025-05-22T16:33:26.672,-0.44
2025-05-22T16:33:26.676,-0.43
2025-05-22T16:33:26.680,-0.44
2025-05-22T16:33:26.684,-0.43
2025-05-22T16:33:26.687,-0.43
2025-05-22T16:33:26.691,-0.45
2025-05-22T16:33:26.695,-0.45
2025-05-22T16:33:26.699,-0.42
2025-05-22T16:33:26.702,-0.42
2025-05-22T16:33:26.706,-0.41
2025-05-22T16:33:26.710,-0.38
2025-05-22T16:33:26.714,-0.36
2025-05-22T16:33:26.717,-0.38
2025-05-22T16:33:26.721,-0.33
2025-05-22T16:33:26.725,-0.07
2025-05-22T16:33:26.729,0.36
2025-05-22T16:33:26.732,0.79
2025-05-22T16:33:26.736,1.24
2025-05-22T16:33:26.740,1.76
2025-05-22T16:33:26.744,2.33
2025-05-22T16:33:26.747,2.97
2025-05-22T16:33:26.751,3.22
2025-05-22T16:33:26.755,2.63
2025-05-22T16:33:26.759,0.99
2025-05-22T16:33:26.762,-0.60
2025-05-22T16:33:26.766,-1.31
2025-05-22T16:33:26.770,-1.48
2025-05-22T16:33:26.774,-1.36
2025-05-22T16:33:26.777,-1.27
2025-05-22T16:33:26.781,-1.18
2025-05-22T16:33:26.785,-1.01
2025-05-22T16:33:26.789,-0.74
2025-05-22T16:33:26.792,-0.46
2025-05-22T16:33:26.796,-0.30
2025-05-22T16:33:26.800,-0.28
2025-05-22T16:33:26.804,-0.28
2025-05-22T16:33:26.807,-0.25
2025-05-22T16:33:26.811,-0.22
2025-05-22T16:33:26.815,-0.21
2025-05-22T16:33:26.819,-0.20
2025-05-22T16:33:26.822,-0.19
2025-05-22T16:33:26.826,-0.18
2025-05-22T16:33:26.830,-0.17
2025-05-22T16:33:26.834,-0.16
2025-05-22T16:33:26.837,-0.15
2025-05-22T16:33:26.841,-0.13
2025-05-22T16:33:26.845,-0.12
2025-05-22T16:33:26.849,-0.10
2025-05-22T16:33:26.852,-0.07
2025-05-22T16:33:26.856,-0.05
2025-05-22T16:33:26.860,-0.05
2025-05-22T16:33:26.864,-0.04
2025-05-22T16:33:26.867,-0.02
2025-05-22T16:33:26.871,-0.01
2025-05-22T16:33:26.875,-0.01
2025-05-22T16:33:26.879,-0.01
2025-05-22T16:33:26.882,0.01
2025-05-22T16:33:26.886,0.03
2025-05-22T16:33:26.890,0.04
2025-05-22T16:33:26.894,0.06
2025-05-22T16:33:26.897,0.07
2025-05-22T16:33:26.901,0.09
2025-05-22T16:33:26.905,0.12
2025-05-22T16:33:26.909,0.14
2025-05-22T16:33:26.912,0.19
2025-05-22T16:33:26.916,0.24
2025-05-22T16:33:26.920,0.24
2025-05-22T16:33:26.924,0.23
2025-05-22T16:33:26.927,0.26
2025-05-22T16:33:26.931,0.31
2025-05-22T16:33:26.935,0.35
2025-05-22T16:33:26.939,0.39
2025-05-22T16:33:26.942,0.43
2025-05-22T16:33:26.946,0.44
2025-05-22T16:33:26.950,0.47
2025-05-22T16:33:26.954,0.53
2025-05-22T16:33:26.957,0.59
2025-05-22T16:33:26.961,0.64
2025-05-22T16:33:26.965,0.70
2025-05-22T16:33:26.969,0.74
2025-05-22T16:33:26.972,0.77
2025-05-22T16:33:26.976,0.81
2025-05-22T16:33:26.980,0.86
2025-05-22T16:33:26.984,0.90
2025-05-22T16:33:26.987,0.94
2025-05-22T16:33:26.991,0.96
2025-05-22T16:33:26.995,0.98
2025-05-22T16:33:26.999,0.99
2025-05-22T16:33:27.002,0.99
2025-05-22T16:33:27.006,0.99
2025-05-22T16:33:27.010,0.99
2025-05-22T16:33:27.014,0.94
2025-05-22T16:33:27.017,0.89
2025-05-22T16:33:27.021,0.86
2025-05-22T16:33:27.025,0.81
2025-05-22T16:33:27.029,0.73
2025-05-22T16:33:27.032,0.66
2025-05-22T16:33:27.036,0.60
2025-05-22T16:33:27.040,0.54
2025-05-22T16:33:27.044,0.45
2025-05-22T16:33:27.047,0.36
2025-05-22T16:33:27.051,0.25
2025-05-22T16:33:27.055,0.17
2025-05-22T16:33:27.059,0.10
2025-05-22T16:33:27.062,0.03
2025-05-22T16:33:27.066,-0.02
2025-05-22T16:33:27.070,-0.05
2025-05-22T16:33:27.074,-0.10
2025-05-22T16:33:27.077,-0.15
2025-05-22T16:33:27.081,-0.21
2025-05-22T16:33:27.085,-0.25
2025-05-22T16:33:27.089,-0.27
2025-05-22T16:33:27.092,-0.27
2025-05-22T16:33:27.096,-0.28
2025-05-22T16:33:27.100,-0.29
2025-05-22T16:33:27.104,-0.29
2025-05-22T16:33:27.107,-0.29
2025-05-22T16:33:27.111,-0.29
2025-05-22T16:33:27.115,-0.28
2025-05-22T16:33:27.119,-0.28
2025-05-22T16:33:27.122,-0.28
2025-05-22T16:33:27.126,-0.27
2025-05-22T16:33:27.130,-0.26
2025-05-22T16:33:27.134,-0.25
2025-05-22T16:33:27.137,-0.24
2025-05-22T16:33:27.141,-0.24
2025-05-22T16:33:27.145,-0.24
2025-05-22T16:33:27.149,-0.22
2025-05-22T16:33:27.152,-0.19
2025-05-22T16:33:27.156,-0.18
2025-05-22T16:33:27.160,-0.18
2025-05-22T16:33:27.164,-0.18
2025-05-22T16:33:27.167,-0.18
2025-05-22T16:33:27.171,-0.18
2025-05-22T16:33:27.175,-0.16
2025-05-22T16:33:27.179,-0.16
2025-05-22T16:33:27.182,-0.16
2025-05-22T16:33:27.186,-0.16
2025-05-22T16:33:27.190,-0.15
2025-05-22T16:33:27.194,-0.15
2025-05-22T16:33:27.197,-0.16
2025-05-22T16:33:27.201,-0.16
2025-05-22T16:33:27.205,-0.17
2025-05-22T16:33:27.209,-0.18
2025-05-22T16:33:27.212,-0.18
2025-05-22T16:33:27.216,-0.19
2025-05-22T16:33:27.220,-0.19
2025-05-22T16:33:27.224,-0.19
2025-05-22T16:33:27.227,-0.18
2025-05-22T16:33:27.231,-0.18
2025-05-22T16:33:27.235,-0.19
2025-05-22T16:33:27.239,-0.21
2025-05-22T16:33:27.242,-0.21
2025-05-22T16:33:27.246,-0.22
2025-05-22T16:33:27.250,-0.23
2025-05-22T16:33:27.254,-0.23
2025-05-22T16:33:27.257,-0.25
2025-05-22T16:33:27.261,-0.26
2025-05-22T16:33:27.265,-0.26
2025-05-22T16:33:27.268,-0.26
2025-05-22T16:33:27.272,-0.26
2025-05-22T16:33:27.276,-0.27
2025-05-22T16:33:27.280,-0.29
2025-05-22T16:33:27.284,-0.31
2025-05-22T16:33:27.287,-0.31
2025-05-22T16:33:27.291,-0.28
2025-05-22T16:33:27.295,-0.28
2025-05-22T16:33:27.298,-0.28
2025-05-22T16:33:27.302,-0.28
2025-05-22T16:33:27.306,-0.29
2025-05-22T16:33:27.310,-0.30
2025-05-22T16:33:27.314,-0.29
2025-05-22T16:33:27.317,-0.31
2025-05-22T16:33:27.321,-0.32
2025-05-22T16:33:27.325,-0.32
2025-05-22T16:33:27.328,-0.31
2025-05-22T16:33:27.332,-0.30
2025-05-22T16:33:27.336,-0.32
2025-05-22T16:33:27.340,-0.34
2025-05-22T16:33:27.343,-0.34
2025-05-22T16:33:27.347,-0.34
2025-05-22T16:33:27.351,-0.32
2025-05-22T16:33:27.355,-0.31
2025-05-22T16:33:27.359,-0.33
2025-05-22T16:33:27.362,-0.34
2025-05-22T16:33:27.366,-0.33
2025-05-22T16:33:27.370,-0.33
2025-05-22T16:33:27.373,-0.34
2025-05-22T16:33:27.377,-0.36
2025-05-22T16:33:27.381,-0.36
2025-05-22T16:33:27.385,-0.36
2025-05-22T16:33:27.388,-0.35
2025-05-22T16:33:27.392,-0.35
2025-05-22T16:33:27.396,-0.35
2025-05-22T16:33:27.400,-0.36
2025-05-22T16:33:27.403,-0.36
2025-05-22T16:33:27.407,-0.37
2025-05-22T16:33:27.411,-0.36
2025-05-22T16:33:27.415,-0.37
2025-05-22T16:33:27.418,-0.39
2025-05-22T16:33:27.422,-0.39
2025-05-22T16:33:27.426,-0.39
2025-05-22T16:33:27.430,-0.39
2025-05-22T16:33:27.433,-0.38
2025-05-22T16:33:27.437,-0.37
2025-05-22T16:33:27.441,-0.34
2025-05-22T16:33:27.445,-0.33
2025-05-22T16:33:27.448,-0.32
2025-05-22T16:33:27.452,-0.30
2025-05-22T16:33:27.456,-0.26
2025-05-22T16:33:27.460,-0.20
2025-05-22T16:33:27.463,-0.16
2025-05-22T16:33:27.467,-0.10
2025-05-22T16:33:27.471,-0.07
2025-05-22T16:33:27.475,-0.07
2025-05-22T16:33:27.478,-0.08
2025-05-22T16:33:27.482,-0.10
2025-05-22T16:33:27.486,-0.14
2025-05-22T16:33:27.490,-0.17
2025-05-22T16:33:27.493,-0.23
2025-05-22T16:33:27.497,-0.30
2025-05-22T16:33:27.501,-0.35
2025-05-22T16:33:27.505,-0.37
2025-05-22T16:33:27.509,-0.39
2025-05-22T16:33:27.512,-0.42
2025-05-22T16:33:27.516,-0.47
2025-05-22T16:33:27.520,-0.51
2025-05-22T16:33:27.523,-0.53
2025-05-22T16:33:27.527,-0.54
2025-05-22T16:33:27.531,-0.53
2025-05-22T16:33:27.535,-0.52
2025-05-22T16:33:27.538,-0.52
2025-05-22T16:33:27.542,-0.53
2025-05-22T16:33:27.546,-0.52
2025-05-22T16:33:27.550,-0.52
2025-05-22T16:33:27.553,-0.51
2025-05-22T16:33:27.557,-0.51
2025-05-22T16:33:27.561,-0.51
2025-05-22T16:33:27.565,-0.51
2025-05-22T16:33:27.568,-0.51
2025-05-22T16:33:27.572,-0.51
2025-05-22T16:33:27.576,-0.51
2025-05-22T16:33:27.580,-0.52
2025-05-22T16:33:27.583,-0.55
2025-05-22T16:33:27.587,-0.56
2025-05-22T16:33:27.591,-0.39
2025-05-22T16:33:27.595,-0.03
2025-05-22T16:33:27.598,0.38
2025-05-22T16:33:27.602,0.78
2025-05-22T16:33:27.606,1.27
2025-05-22T16:33:27.610,1.86
2025-05-22T16:33:27.613,2.54
2025-05-22T16:33:27.617,3.06
2025-05-22T16:33:27.621,2.88
2025-05-22T16:33:27.625,1.68
2025-05-22T16:33:27.628,-0.12
2025-05-22T16:33:27.632,-1.26
2025-05-22T16:33:27.636,-1.67
2025-05-22T16:33:27.640,-1.63
2025-05-22T16:33:27.643,-1.49
2025-05-22T16:33:27.647,-1.41
2025-05-22T16:33:27.651,-1.25
2025-05-22T16:33:27.655,-1.03
2025-05-22T16:33:27.658,-0.73
2025-05-22T16:33:27.662,-0.51
2025-05-22T16:33:27.666,-0.44
2025-05-22T16:33:27.670,-0.43
2025-05-22T16:33:27.673,-0.41
2025-05-22T16:33:27.677,-0.39
2025-05-22T16:33:27.681,-0.37
2025-05-22T16:33:27.685,-0.33
2025-05-22T16:33:27.688,-0.29
2025-05-22T16:33:27.692,-0.26
2025-05-22T16:33:27.696,-0.24
2025-05-22T16:33:27.700,-0.24
2025-05-22T16:33:27.703,-0.25
2025-05-22T16:33:27.707,-0.25
2025-05-22T16:33:27.711,-0.22
2025-05-22T16:33:27.715,-0.20
2025-05-22T16:33:27.718,-0.21
2025-05-22T16:33:27.722,-0.21
2025-05-22T16:33:27.726,-0.19
2025-05-22T16:33:27.730,-0.17
2025-05-22T16:33:27.733,-0.16
2025-05-22T16:33:27.737,-0.15
2025-05-22T16:33:27.741,-0.14
2025-05-22T16:33:27.745,-0.13
2025-05-22T16:33:27.748,-0.11
2025-05-22T16:33:27.752,-0.09
2025-05-22T16:33:27.756,-0.07
2025-05-22T16:33:27.760,-0.05
2025-05-22T16:33:27.763,-0.04
2025-05-22T16:33:27.767,-0.02
2025-05-22T16:33:27.771,0.00
2025-05-22T16:33:27.775,0.02
2025-05-22T16:33:27.778,0.05
2025-05-22T16:33:27.782,0.07
2025-05-22T16:33:27.786,0.10
2025-05-22T16:33:27.790,0.13
2025-05-22T16:33:27.793,0.16
2025-05-22T16:33:27.797,0.17
2025-05-22T16:33:27.801,0.20
2025-05-22T16:33:27.805,0.23
2025-05-22T16:33:27.808,0.27
2025-05-22T16:33:27.812,0.29
2025-05-22T16:33:27.816,0.33
2025-05-22T16:33:27.820,0.36
2025-05-22T16:33:27.823,0.40
2025-05-22T16:33:27.827,0.45
2025-05-22T16:33:27.831,0.50
2025-05-22T16:33:27.835,0.54
2025-05-22T16:33:27.838,0.59
2025-05-22T16:33:27.842,0.63
2025-05-22T16:33:27.846,0.68
2025-05-22T16:33:27.850,0.72
2025-05-22T16:33:27.853,0.76
2025-05-22T16:33:27.857,0.78
2025-05-22T16:33:27.861,0.80
2025-05-22T16:33:27.865,0.81
2025-05-22T16:33:27.868,0.82
2025-05-22T16:33:27.872,0.81
2025-05-22T16:33:27.876,0.80
2025-05-22T16:33:27.880,0.77
2025-05-22T16:33:27.883,0.73
2025-05-22T16:33:27.887,0.68
2025-05-22T16:33:27.891,0.63
2025-05-22T16:33:27.895,0.57
2025-05-22T16:33:27.898,0.49
2025-05-22T16:33:27.902,0.39
2025-05-22T16:33:27.906,0.31
2025-05-22T16:33:27.910,0.24
2025-05-22T16:33:27.913,0.16
2025-05-22T16:33:27.917,0.07
2025-05-22T16:33:27.921,-0.01
2025-05-22T16:33:27.925,-0.09
2025-05-22T16:33:27.928,-0.14
2025-05-22T16:33:27.932,-0.20
2025-05-22T16:33:27.936,-0.27
2025-05-22T16:33:27.940,-0.32
2025-05-22T16:33:27.943,-0.34
2025-05-22T16:33:27.947,-0.36
2025-05-22T16:33:27.951,-0.38
2025-05-22T16:33:27.955,-0.40
2025-05-22T16:33:27.958,-0.42
2025-05-22T16:33:27.962,-0.44
2025-05-22T16:33:27.966,-0.44
2025-05-22T16:33:27.970,-0.43
2025-05-22T16:33:27.973,-0.43
2025-05-22T16:33:27.977,-0.42
2025-05-22T16:33:27.981,-0.41
2025-05-22T16:33:27.985,-0.41
2025-05-22T16:33:27.988,-0.41
2025-05-22T16:33:27.992,-0.39
2025-05-22T16:33:27.996,-0.39
2025-05-22T16:33:28.000,-0.39
2025-05-22T16:33:28.003,-0.39
2025-05-22T16:33:28.007,-0.36
2025-05-22T16:33:28.011,-0.35
2025-05-22T16:33:28.015,-0.34
2025-05-22T16:33:28.018,-0.33
2025-05-22T16:33:28.022,-0.32
2025-05-22T16:33:28.026,-0.31
2025-05-22T16:33:28.030,-0.30
2025-05-22T16:33:28.033,-0.29
2025-05-22T16:33:28.037,-0.28
2025-05-22T16:33:28.041,-0.29
2025-05-22T16:33:28.045,-0.29
2025-05-22T16:33:28.048,-0.29
2025-05-22T16:33:28.052,-0.28
2025-05-22T16:33:28.056,-0.27
2025-05-22T16:33:28.060,-0.27
2025-05-22T16:33:28.063,-0.28
2025-05-22T16:33:28.067,-0.28
2025-05-22T16:33:28.071,-0.27
2025-05-22T16:33:28.075,-0.29
2025-05-22T16:33:28.078,-0.29
2025-05-22T16:33:28.082,-0.28
2025-05-22T16:33:28.086,-0.29
2025-05-22T16:33:28.090,-0.29
2025-05-22T16:33:28.093,-0.29
2025-05-22T16:33:28.097,-0.30
2025-05-22T16:33:28.101,-0.31
2025-05-22T16:33:28.105,-0.32
2025-05-22T16:33:28.108,-0.33
2025-05-22T16:33:28.112,-0.33
2025-05-22T16:33:28.116,-0.33
2025-05-22T16:33:28.120,-0.35
2025-05-22T16:33:28.123,-0.36
2025-05-22T16:33:28.127,-0.36
2025-05-22T16:33:28.131,-0.36
2025-05-22T16:33:28.135,-0.37
2025-05-22T16:33:28.138,-0.38
2025-05-22T16:33:28.142,-0.38
2025-05-22T16:33:28.146,-0.38
2025-05-22T16:33:28.150,-0.38
2025-05-22T16:33:28.153,-0.40
2025-05-22T16:33:28.157,-0.41
2025-05-22T16:33:28.161,-0.41
2025-05-22T16:33:28.165,-0.41
2025-05-22T16:33:28.168,-0.41
2025-05-22T16:33:28.172,-0.40
2025-05-22T16:33:28.176,-0.41
2025-05-22T16:33:28.180,-0.41
2025-05-22T16:33:28.183,-0.41
2025-05-22T16:33:28.187,-0.40
2025-05-22T16:33:28.191,-0.39
2025-05-22T16:33:28.195,-0.40
2025-05-22T16:33:28.198,-0.40
2025-05-22T16:33:28.202,-0.41
2025-05-22T16:33:28.206,-0.41
2025-05-22T16:33:28.210,-0.41
2025-05-22T16:33:28.213,-0.41
2025-05-22T16:33:28.213,-0.38
2025-05-22T16:33:28.213,-0.38
2025-05-22T16:33:28.213,-0.39
2025-05-22T16:33:28.213,-0.39
2025-05-22T16:33:28.213,-0.39
2025-05-22T16:33:28.213,-0.39
2025-05-22T16:33:28.213,-0.40
2025-05-22T16:33:28.213,-0.40
2025-05-22T16:33:28.213,-0.40
2025-05-22T16:33:28.213,-0.39
2025-05-22T16:33:28.213,-0.40
2025-05-22T16:33:28.213,-0.40
2025-05-22T16:33:28.213,-0.40
2025-05-22T16:33:28.213,-0.39
2025-05-22T16:33:28.213,-0.39
2025-05-22T16:33:28.213,-0.39
2025-05-22T16:33:28.213,-0.39
2025-05-22T16:33:28.213,-0.39
2025-05-22T16:33:28.213,-0.39
2025-05-22T16:33:28.213,-0.38
2025-05-22T16:33:28.213,-0.38
